3596
4000.36533379555
650.420452594757
1
128
2
99.5452814851796
99.5647992045632
99.5630490086949
99.4981149141845
99.5374160469502
99.5927710777839
99.6023525650533
99.5649127803586
99.5340944935565
99.4826836511444
99.4593937007624
99.4695108893701
99.478551826229
99.4884443430991
99.4787183161417
99.5027685089605
99.5455601571152
99.5642876866251
99.5406480813269
99.5446654506175
99.4725870543669
99.4957864151492
99.544110558303
99.5157554796205
99.4839551422642
99.4636406542174
99.4683972828357
99.4746927354269
99.4987382683827
99.4999780401811
99.394929276084
99.3660553706696
99.4352399160913
99.4718485424637
99.4235564956267
99.45538345293
99.5400185126393
99.4864520197113
99.4287979922849
99.411106115201
99.464964493569
99.4995407394858
99.4854909063174
99.4419002076225
99.4239702656266
99.3806248854475
99.4234850501665
99.5136071758765
99.5444281320418
99.5502429426509
99.5261326729284
99.438282493456
99.417848706212
99.4629627176854
99.462111979349
99.4193488736998
99.447842682369
99.5609194786635
99.5326087823872
99.3946701815824
99.3465725691587
99.3945446314583
99.4058194305018
99.4104283072106
99.4564777031886
99.489551104149
99.5163748331304
99.5471556478588
99.5454201393494
99.5222006060448
99.5344875117343
99.5016718413441
99.4620191308567
99.4191039884072
99.344074982321
99.3944977247325
99.5195389222233
99.5421462736995
99.5068984256646
99.402299070813
99.4347893426838
99.5379630584835
99.4976007963707
99.4717522410608
99.5189138315464
99.5488800507109
99.4560357677275
99.3332674122958
99.3549750613169
99.4383405344843
99.4193782127428
99.4267071882554
99.4454177613481
99.4326691007448
99.4441724422959
99.467322785668
99.4757535065491
99.5549972946651
99.6422147708722
99.6202794101317
99.6626282277087
99.6844114683812
99.5418429876139
99.4993559349838
99.6343325002847
99.6571397301224
99.5179882910202
99.4724794933935
99.4800547004634
99.4250608814006
99.456261003989
99.5647747102675
99.6769289138112
99.6582380841182
99.451057232547
99.3737266413658
99.4309288419464
99.5024010383532
99.5905673834816
99.5591970738028
99.4645194212858
99.4409894983919
99.4697422597552
99.5371432791567
99.6422420493811
99.5600701817274
99.4314354737232
99.453367947921
99.4865238630093
99.5492004709927
99.6204856609951
99.6349464539006
99.5399822494636
99.4874168623835
99.5595932688326
99.7311058811414
99.7432228970399
99.5251354268589
99.3244576228494
99.3497786775741
99.527636836701
99.5860651895972
99.4931822749821
99.3876953504065
99.5363299207026
99.5975630869487
99.4174976722263
99.3785620135143
99.5043519623268
99.5599780363423
99.5315441446677
99.6144906396851
99.8238547484222
99.9491655679498
99.8018930064656
99.6956305209843
99.5099262404725
99.2994967451372
99.2684284387161
99.3152757070135
99.3763229222896
99.3720944793404
99.4154673684473
99.4941794206344
99.4542244224405
99.3657694643934
99.4443509407696
99.5261350192047
99.5531983517038
99.6065407400647
99.6403906918393
99.5322762538426
99.5300884922209
99.6006524857656
99.5432721063071
99.386675587499
99.3846772587737
99.4228741598951
99.3773945229013
99.3786178690787
99.4445312329417
99.4956051621879
99.4739548912001
99.4525505463206
99.4036551496562
99.4113831395683
99.5277363961464
99.7045982901924
99.7472524290142
99.6287862154347
99.3968353692743
99.2534108390376
99.3327372771035
99.4286842249099
99.3905442005932
99.2311840846403
99.263759945323
99.3468656894253
99.3579884975663
99.342645866121
99.3006934178588
99.363270648282
99.5290997504259
99.6118511210344
99.527155096286
99.3621235589244
99.309494884469
99.3936231475028
99.4977909358788
99.5754419921595
99.4939374211261
99.2984938984314
99.1925516163941
99.1620772259956
99.2302680051637
99.3165199110875
99.2654239305465
99.1761459487585
99.1244576123541
99.1864632231019
99.2353432790509
99.1974817337834
99.1865653130469
99.1915242539871
99.2844298839222
99.3597111993269
99.3576478906204
99.3339024032847
99.2900838870937
99.2083256673863
99.1764680140318
99.1468303914711
99.2284122104177
99.2491688848733
99.1495187752568
99.097983942277
99.0554100182344
99.0939247210373
99.1521178593154
99.1589953327198
99.1760639077991
99.2074129884865
99.2766294754438
99.3610479575588
99.2565059410103
99.0747450136418
99.0892520573428
99.1765160335784
99.1192347367012
99.0286666127221
98.9607067503169
98.997339709729
99.0726820961053
99.2244123044864
99.3486638137172
99.2585052471939
99.0916353235518
99.1192404198863
99.1392215609465
99.0993638772956
99.0713282761213
99.1476901934506
99.2747351155362
99.2895425368963
99.3066339973979
99.3458700100255
99.1564124447435
99.0290639160048
99.0376795826322
99.2957616246244
99.5450293282924
99.2998482885353
98.821195666582
98.8658393842266
98.9221729074239
98.8734913751111
98.9806923639727
99.0674631307349
99.1514939214856
99.2207974841375
99.262738386301
99.150540270455
98.9183846402826
98.9094696287468
98.8513440223838
98.6510243227695
98.4854986544941
98.4998511704382
98.6172467286535
98.8199444335603
98.8746297165238
98.7293400709954
98.569900986633
98.5940686760603
98.6780793768801
98.5824191351327
98.5582059358399
98.5663532506475
98.4348539844427
98.305757642677
98.2934974370715
98.3198373295712
98.2802748238736
98.2648539005099
98.4101529004636
98.5104122447761
98.3957022711895
98.2789162422789
98.1749261202248
98.0509684902535
97.9679512689284
97.8066506793557
97.7710271685786
97.8065149764286
97.8219807985111
97.8135954651979
97.7715679612567
97.6129541984798
97.5110484294326
97.4805895024732
97.4366110278353
97.4246321914217
97.3544574934555
97.1938855368907
97.1111831242519
97.0675434286315
97.0696296836335
97.1726099450258
97.1100459166444
96.9366784027739
96.8466885375041
96.7112353328575
96.4114851582537
96.2037637464346
96.1603188006267
96.0313478140699
95.8179279719015
95.7151160591439
95.6264085226896
95.5591554350419
95.5473331071067
95.3776000956458
95.2206074357745
95.2481726152547
95.3055292311249
95.2637571334616
94.8806144304502
94.3074688407511
94.1935997344393
94.3330601148608
94.2174208610061
93.9965280851173
93.7981854300058
93.4390679701957
93.1013176479274
92.8796527065034
92.742940903255
92.6445598749765
92.4272229534158
92.1913061998829
92.022000535299
91.8446058278168
91.6711329143091
91.4729887117334
91.3780195909306
91.3180568302322
91.038167887585
90.697821151861
90.4453332218375
90.3259375270247
90.299133144792
90.1374793992988
89.8719969232773
89.6604408552121
89.4726545748987
89.2624418147221
89.0928257378329
88.9123976278266
88.6341064860438
88.355591941428
88.2335624332525
88.1007210043481
87.8809554598228
87.6135354646314
87.4121836872017
87.2603553444597
87.0833824760563
86.8783885476293
86.7281699569823
86.5768375245375
86.3499061539783
86.1394483638926
86.0247204418381
85.9433111582026
85.781459575508
85.5457210045579
85.3564101011148
85.1829535887823
84.9899198234864
84.8682418202365
84.689094149941
84.5508714605103
84.4842020915735
84.3363837281805
84.0709932886706
83.8840334997019
83.7146511475528
83.4781589873211
83.3648717533368
83.2923351320647
83.1245795304178
82.9628125035267
82.8785616547013
82.7379262252067
82.5467311182246
82.3115810971665
82.1559174911758
82.0399055749566
81.8865800556971
81.6901327532649
81.6065846158602
81.5966301231939
81.5555666810419
81.4340232098729
81.2382213032935
81.0289931691424
80.8441033107786
80.660727318114
80.502112705412
80.3270118397918
80.2129603276851
80.0654435715101
79.8492171005559
79.6566218494107
79.5075467488434
79.402035777159
79.3480840077718
79.2397807099954
79.0484969038268
78.8631488910042
78.7047842107668
78.5508376224695
78.3923352420562
78.2374440302915
78.1666020607672
78.0623128368967
77.8705031348531
77.6734261506685
77.5564463733128
77.4280263373505
77.2846977592807
77.1016443420001
76.963811062235
76.8802042844142
76.731187439778
76.5706280272309
76.4382484571459
76.2119782105269
76.0308434149837
75.7912676448418
75.4519724106515
75.2747647875767
75.235668719215
75.1804703441322
75.0570608392409
74.9905494712367
74.8495969513491
74.6361185578762
74.4765755250689
74.3135400955789
74.2288092939834
74.0986375368336
73.9384820405019
73.7694010047908
73.6051286398461
73.4036641124184
73.2393062470845
73.0158820012134
72.789344048832
72.6926252514701
72.6349832896255
72.4947131125132
72.3704525896218
72.1933821534024
72.0061948548786
71.8281201136337
71.611123986001
71.4322731603095
71.3061108169263
71.1516364137882
70.9474284349014
70.7655374445223
70.6694402198322
70.559182409345
70.3567922727365
70.1145769419797
70.0434403050002
69.9338038594396
69.7041408280338
69.5566695981884
69.3885503248341
69.1802936147953
68.9655931037128
68.7688603003956
68.6611264925999
68.5285533636127
68.470666641169
68.3984753886734
68.1884294205234
67.9499780264642
67.7485539519778
67.576282805331
67.5169041337393
67.3661907804939
67.1800087988504
67.0562975475031
66.8631607832723
66.6511187352902
66.5060595179959
66.3158579305878
66.1780884289068
66.0398199458706
65.9099107582701
65.7180979665893
65.5000093161393
65.3972371429628
65.356207294998
65.2108068126818
65.0397945670169
64.826120987164
64.6614194933859
64.4857398706568
64.3458300509064
64.2100876932005
64.0324106160472
63.9133279165287
63.6969682521322
63.4021015381205
63.3117323794529
63.1792654300753
62.9828656045544
62.834395253499
62.7815827171069
62.6908013058278
62.4482171679509
62.1522463253886
62.0093420107756
61.9428225616309
61.8439747732243
61.6371519588944
61.4885192566034
61.3565056200375
61.143961921804
61.0186770875416
60.9621801503506
60.7519383996486
60.5591557487005
60.384450986802
60.2125152489826
60.0883440739529
59.9493146208683
59.8252861829758
59.717121988709
59.5550348981096
59.4414620935531
59.3320526657653
59.2146081837252
58.9969780443605
58.7825261333832
58.486178619679
58.2449307673175
58.1369702750613
57.9434640563172
57.7098058856869
57.670223479534
57.6040523254033
57.4788141240545
57.2722831765447
57.0517740888688
56.9044178713749
56.7340251716229
56.5569750004156
56.4603493124762
56.3137226059488
56.1644043325151
56.0542896856845
55.9179735809035
55.8012227704019
55.6994344759864
55.5108536917667
55.2923454851727
55.1267348907333
55.0377856032661
54.9244137616308
54.7701795988376
54.610765066208
54.5016787473657
54.3998867055646
54.2702678910153
54.1650521189636
54.1104844389019
53.9819781591909
53.8241294011116
53.5919161969269
53.2831203273507
53.0716736537081
52.9867537038588
52.9006562079714
52.7477072876862
52.5162888018705
52.3169860475797
52.1409759487461
51.9881716161815
51.8830217274558
51.7656800971609
51.5880311590674
51.4531628373216
51.3453732384138
51.2543333909976
51.1257540468745
50.9782759877
50.8156502338752
50.7349416318538
50.7446444562812
50.6719179880032
50.4727432090186
50.3531457421029
50.2616568338863
50.0951150072132
49.9467370497651
49.8225657899946
49.6792543727269
49.5516595315165
49.4057074378737
49.2534411453927
49.1678426743883
49.1328819877431
49.1263377526207
49.0822755696297
48.8856398650395
48.696475974125
48.5230814852867
48.3275302975686
48.167231406601
48.1043277538573
48.0727853786859
48.0499329133736
48.0021700040356
47.9147200667032
47.7734888362839
47.6014092835542
47.4395279518961
47.3130024510881
47.1933455054143
47.1195691155948
47.0169038380427
46.8871381423964
46.8116877018811
46.8298572718167
46.8078621141173
46.768240257887
46.7609494476052
46.6773519504482
46.5601316174242
46.5290305093007
46.4751349325447
46.3775909371596
46.2671175709376
46.1694803793381
46.1018829799953
46.1023994709429
46.111376690298
46.1171012878527
46.0412388197526
45.9297967119937
45.8311463755841
45.698279768658
45.5512574635797
45.4482435349418
45.3997728562109
45.4170685843274
45.4449400948834
45.4815318500307
45.4129611295443
45.2683595940247
45.1643118982301
45.1390856485425
45.1144601422727
45.0982651868805
45.0733173254548
45.1067874441988
45.1947597278761
45.2568067338587
45.2234136352311
45.1420771695498
44.9995727901313
44.9001135470767
44.8691877946134
44.8274287777719
44.8063479737337
44.8992419067603
44.9726241486879
44.9087431718784
44.8232829002522
44.7920433801744
44.7624800586453
44.7715999758021
44.7566585914714
44.6869384068352
44.605745147701
44.5876559858935
44.5859055687018
44.5837407120691
44.5881114114605
44.6128063041675
44.6239368225284
44.6448524880631
44.6153638229151
44.5713854340322
44.6164598726755
44.6530763040306
44.6052208866688
44.5462454442149
44.5065073007846
44.5275255867654
44.5487524285361
44.5298439219836
44.5327036292128
44.542465650278
44.5193616582417
44.5343236929056
44.5778713764014
44.5921896013389
44.6162967858871
44.6250791327151
44.5898488926775
44.6096302855107
44.627046733365
44.6068152708084
44.5354001087372
44.5126825949903
44.5745856231024
44.6096164497301
44.5566473314159
44.519307492442
44.5225996309276
44.4733334011991
44.4351318316264
44.5288289778179
44.5601003766865
44.4762500337205
44.4568404603989
44.5142239796163
44.5012942411263
44.4723737656782
44.5079843095582
44.5652277083283
44.5354085778501
44.4592151573513
44.4234060433292
44.4285132063632
44.448084814552
44.4674320556023
44.486992285762
44.5654795707389
44.6045205746055
44.5485301461531
44.4987253797791
44.4783203154752
44.4784210539053
44.4760730054352
44.454605935013
44.4631182031547
44.5006532941806
44.5270587119975
44.5043307471874
44.480571642379
44.4699856058848
44.4816193290975
44.525739120812
44.5453465200714
44.4742719685916
44.4021749878148
44.3972299104261
44.4422557689376
44.4446711586996
44.4420091904858
44.4843354915347
44.5343407674051
44.5447098792477
44.5066018432142
44.4936978788383
44.5568457721216
44.619225094298
44.6418399230076
44.637056732746
44.610769039325
44.5815241577034
44.5792613808994
44.523972980224
44.5114642886091
44.6098541346242
44.6620943898018
44.6555222326737
44.6880753132788
44.7007126571004
44.6793302459704
44.6544094158023
44.6285571202945
44.6243364797134
44.677383877284
44.7594617740341
44.8254415773305
44.8273477645695
44.8229850478665
44.8886029246736
44.9429004497864
44.9540755239031
44.9914091210877
45.0481649018999
45.0602084334874
45.0394674611626
45.0621117108176
45.087908448499
45.1088819857944
45.1405111482566
45.1986270472063
45.2494122027857
45.3087009535889
45.4097766692647
45.5081487638596
45.5648025924014
45.6028902994147
45.6532575038139
45.7379441542679
45.8005442079517
45.8423070694272
45.9084547987159
45.9670861103163
46.0156525440134
46.1006527405309
46.1589119771219
46.1986064145687
46.2830446286644
46.3833444913325
46.4968719341985
46.6021066820077
46.7031794381319
46.8546232753376
46.9482022214007
46.9888627364877
47.1035562187277
47.2148316459283
47.2741299869587
47.3551586195861
47.4513396696988
47.5457448641629
47.6733162089241
47.8330827598178
48.0050812499282
48.1106253615382
48.1806880431292
48.3110802730051
48.4308576161367
48.5505721735202
48.6667669356098
48.7822416052065
48.939709130156
49.072148922313
49.1984049303864
49.300217803665
49.4226463033935
49.5810316505355
49.7038468440964
49.8428346092443
50.0081736729053
50.1700886602501
50.2898859026348
50.4158803392112
50.5661523393969
50.7341070220805
50.9378442075551
51.1128287212887
51.2548039824474
51.3962643371248
51.5524472522519
51.7508050405398
51.9410938366102
52.0672590714031
52.1998241566868
52.3737844660381
52.5384680737571
52.7212479794125
52.9445764334477
53.1121070506928
53.231829720056
53.4100562431681
53.6290719774732
53.7982904533651
53.9932045461844
54.2213672216143
54.4096822574023
54.5716427894944
54.7455796668257
54.9531744031762
55.1957569895399
55.4164404419813
55.5395963405899
55.663707770838
55.8488301896493
56.0244420075431
56.1958487586095
56.4413281215041
56.7089812968854
56.863675538901
57.0216300323557
57.269158662338
57.5001601731253
57.6763043152228
57.8948268986617
58.1235789082319
58.2982954367515
58.4515351623511
58.6408479805222
58.8757657341887
59.0702761434077
59.2079278974575
59.3941544635229
59.6391448357927
59.8885660991044
60.1825793109407
60.4515807030443
60.5915883981752
60.7207895575957
60.9275757230261
61.1740784584679
61.4306028561324
61.651601652466
61.8586917623868
62.0999035188333
62.3835254976917
62.6098742540787
62.7530928906015
62.9240262622893
63.1311550343353
63.3082507687915
63.4881022608455
63.6732603966829
63.8891959875112
64.1447587668241
64.3727694013435
64.5514434433309
64.7577086489972
65.0104040567898
65.1987716843877
65.3500266487508
65.5770012282026
65.8310985015119
66.0254490742987
66.2430457306684
66.4800300106559
66.7149316861806
66.9546105995467
67.1179844911807
67.2769990720013
67.5424570920992
67.8089874249867
68.0067042632623
68.2098756114114
68.4059608343771
68.6087259064846
68.869706525499
69.1059308267208
69.3081819805765
69.4935736626177
69.6841459511794
69.9121939896296
70.1126799354145
70.2758167976587
70.4583043234468
70.688084303366
70.8939697846598
71.0623643668672
71.2693733419972
71.5090930111733
71.727505712732
71.8990814816119
72.0382378288012
72.1956510645699
72.3634657625311
72.564390054692
72.7787172564041
73.0075563315705
73.2314413863724
73.4152336724246
73.6342787707341
73.8471740156215
73.998685321983
74.1532144476067
74.3748661010137
74.5991257867075
74.7511896563288
74.926058551162
75.1249678007832
75.2913839907421
75.4964855188213
75.7445102479085
75.9488282431722
76.1031860658374
76.2419797495104
76.3816483694734
76.5759222578499
76.7979137919508
77.0061030377222
77.1895869634717
77.3530469669822
77.5431047133661
77.7032749115971
77.8201534261321
77.9669393457716
78.1734344046827
78.4037371487048
78.6011900032017
78.7371622746319
78.8856651598434
79.0478601303029
79.2065359106922
79.3368012804859
79.475854660882
79.6565691579576
79.8080077354393
79.9772432218545
80.1625762686353
80.3245692846443
80.4519261233322
80.6126103207163
80.7814284707634
80.9092960639358
81.0880863787982
81.2555394860541
81.3993773706333
81.6045688710437
81.7972734942916
81.850758895508
81.9452534546688
82.1250613954585
82.2843147201272
82.4533824006127
82.5677655395735
82.7019007131633
82.8815577304324
83.013864681026
83.1450231984768
83.3228179142898
83.4394785012299
83.5764570038406
83.7463638447794
83.854257706793
83.9868774827691
84.1188946730266
84.2209140254997
84.3375932122411
84.4714860465092
84.6129939090954
84.7660230058406
84.915968345457
85.0732062625405
85.2173821641952
85.3023058406496
85.3939297018174
85.5102999988247
85.5963554408153
85.7263688222172
85.9003098530843
86.0270864143907
86.0979794003236
86.1504118448295
86.2593521960049
86.4373148891992
86.6243862956571
86.748903648001
86.8488559306123
86.9624423253493
87.0659210725759
87.1600491471966
87.2686980514867
87.4005032830027
87.4933544368885
87.5570562048972
87.6345920026864
87.7512642867578
87.8561239964487
87.9289829571695
88.0376817002562
88.1505949499909
88.2572519272784
88.4162544187194
88.5473354011834
88.6203852563781
88.6987127634012
88.8155400871452
88.9109626500458
89.0019360513256
89.0869223647827
89.1550473234332
89.2327156134147
89.3481088521578
89.43560355581
89.5243122368546
89.6124307814058
89.6676569443667
89.7514145263049
89.8919794962268
89.9999573204991
90.0920976230599
90.1700708997883
90.1921981864815
90.2209947854595
90.3167368643576
90.4323707100592
90.5258281361602
90.6437433575795
90.7433563815092
90.8038313579976
90.8853944935792
90.9644586100208
91.0260888339735
91.1042091469905
91.186495924677
91.2668495469055
91.3425951971909
91.4466174547194
91.5514890424718
91.6183330110923
91.685689080063
91.71822377867
91.7816427659232
91.8525178770931
91.937091300926
92.0201254478048
92.0675299702834
92.1127244802975
92.187678345567
92.2463903085708
92.2817853697199
92.3273974992062
92.3996986646437
92.4971843189386
92.5604546372209
92.6402254099035
92.7513210270227
92.8035037880301
92.833249509596
92.882638986581
92.9426989196746
93.0127345039628
93.0734613520705
93.1307004871713
93.1832842919845
93.2304295652625
93.2609810117307
93.3206597209759
93.4076367813512
93.4599072224096
93.5432673426716
93.6217147126352
93.6754265919048
93.722775478923
93.7747680525106
93.8476674406593
93.9102802523598
93.9257911308573
93.9524205621485
94.0192858021187
94.092217828329
94.1279687614287
94.180932162209
94.2582613224591
94.2958416675463
94.3156380939568
94.3466656375748
94.3607263513732
94.4038486430172
94.5199127256434
94.5609132902126
94.5774444645057
94.6197342414297
94.6515640917577
94.7153660470997
94.7783955666243
94.816687110188
94.8715018758158
94.8914583556966
94.9184404431732
94.9420917602695
94.9463334957116
95.0123494692366
95.1016001921264
95.1525952899417
95.1608262387979
95.1900602125757
95.2447078664197
95.2590794889073
95.2781936138203
95.3200114691539
95.3552831575751
95.4325524491494
95.4832117239894
95.4930607853151
95.5382948970785
95.5996117880825
95.6631134090734
95.6992915123314
95.7031453519958
95.7509372593148
95.7940668406286
95.7736344280836
95.7670926066208
95.8352687745828
95.8493685393265
95.86515797353
95.9553538438228
96.017417090687
96.0127130045288
96.0151444320487
96.0544629765504
96.1125918884567
96.1592301712642
96.2002568682965
96.2407287787189
96.2690902663139
96.2507277817817
96.2222009755011
96.2387544549352
96.293762084842
96.3452852234335
96.3815506308536
96.4053035063213
96.4578509369523
96.4603957440845
96.4494239288159
96.5009445682423
96.5418462474186
96.5364785967467
96.5470387378158
96.5905260275648
96.6157144714092
96.6445453543005
96.6915447981974
96.7581770034612
96.7687684157003
96.7658819622881
96.8016904691959
96.8158137340599
96.84002474192
96.8636312481149
96.8998720822261
96.9201443033064
96.9550353342927
96.979117622125
96.9828648887497
96.9959635108274
97.0189349465873
97.0621437376196
97.0688246204066
97.0887217278354
97.0934250987205
97.0824912827744
97.1136211822587
97.1596397929476
97.1888808792084
97.2144455326085
97.2302474231367
97.216438186503
97.2034806600235
97.237870216357
97.3022939026126
97.3371090201484
97.3707918177696
97.3951378418323
97.3955710351371
97.4146753917991
97.4226025616062
97.4006710515877
97.4083908817119
97.4088397904289
97.4008755774732
97.4379398190109
97.5032524847757
97.5537644091807
97.5428595083165
97.5126240009023
97.5270399119324
97.5414163251666
97.5501689842718
97.5984867599973
97.6218875444989
97.598345517922
97.6360955968743
97.6904327225312
97.7277317385717
97.7275466519425
97.7185198990194
97.7256555572949
97.7450688852629
97.7604428918153
97.7470948635001
97.7146743967587
97.7191225696006
97.7286391484566
97.7571299465928
97.7913552343388
97.8594978433188
97.9266904671955
97.9305563091632
97.9072969699074
97.8958519318294
97.9216654021053
97.9480008526297
97.9417471785376
97.9146136494303
97.929848074669
97.9452131829096
97.9262813074451
97.9541214807351
98.007515829241
98.0044002744123
97.9914886928426
98.0091931030897
98.0230559383949
98.0188516319634
98.0124496920672
98.0355092169246
98.0789898723788
98.0879621337402
98.0697345396157
98.0837121183508
98.1179779182372
98.1348189612635
98.1022932563381
98.1044009632664
98.1180071585406
98.1609297682807
98.1593138255859
98.1535278093248
98.1966566288455
98.209870866485
98.1913679580267
98.2088236544704
98.2385555304804
98.2442402004978
98.2110106076779
98.220720067923
98.2734230809327
98.2835824399
98.2598343346505
98.2875688332946
98.2959240392387
98.2716648478224
98.2989440198212
98.3154115957669
98.2696258985462
98.2378842706877
98.2522977250835
98.272102892175
98.3042165355392
98.3262226353372
98.3348944054129
98.3316208749708
98.3600769332662
98.3967043303952
98.4049030143755
98.4060669063939
98.4056835573475
98.3873701856069
98.3845480325793
98.4283697092663
98.4486785199974
98.4222958072224
98.4139364050196
98.4133831757932
98.4054905849995
98.4289819990113
98.4626662208131
98.4498787032487
98.4567844209603
98.4831782648295
98.4595217552859
98.4426626094408
98.447810317823
98.4952059065362
98.5071304293756
98.5039303421352
98.5039498584319
98.5228253679032
98.5151399656301
98.495302497859
98.5043770356939
98.5283123199138
98.5311833202324
98.5249297017081
98.5411575916707
98.5358804893004
98.5239735764659
98.5421857395806
98.5564681918412
98.5705531364552
98.5849064679059
98.554736102432
98.5371957170353
98.5425337903989
98.5481231137647
98.5765892538352
98.5990067107572
98.5991628409947
98.5925637215785
98.5702499628445
98.577293773696
98.5880424015613
98.5865076572117
98.6090465117997
98.6255861695334
98.6487415720235
98.6657266109451
98.6530354384881
98.628766519551
98.6224227271882
98.652067646629
98.6589506008012
98.6306529141135
98.6009748674348
98.5958417383216
98.6283464556492
98.6479299960458
98.6657075139067
98.6412025739541
98.6398001628026
98.6898701420533
98.6818830889808
98.6714363428197
98.6690116122403
98.6798664798088
98.6915694207997
98.6529630224715
98.6498810055811
98.6888208353091
98.7175315026364
98.7159567242792
98.7078333059395
98.7235785701778
98.7471440734495
98.7479951526647
98.7174448745141
98.6930006868358
98.7542690118477
98.7676542298764
98.7541761983274
98.807616670049
98.7857773396024
98.7392805202583
98.7721300720224
98.7965635571425
98.8350914485871
98.8313647963303
98.7714514474164
98.770679107979
98.8320119527629
98.8477365236398
98.7990390137409
98.7780500257614
98.8012880327659
98.8064505684956
98.8018484166672
98.8610475849908
98.9050967591183
98.8862468399564
98.8577501293116
98.843468455213
98.8513017878607
98.8563624844598
98.8275907515231
98.7971963225487
98.8562250172683
98.9118915846936
98.9063635732823
98.9046846283348
98.928832018692
98.9286301137655
98.9436624786724
98.9694108210246
98.9766128901973
98.9615287187722
98.9571948201862
98.9591533612262
98.9410047523431
98.9158095437637
98.9076061803736
98.9061406842697
98.9255163507867
98.946252918468
98.9558298261346
98.9448755998459
98.9328308112578
98.9140763205686
98.922295541345
98.9558658531963
98.9727707242998
98.9709181988932
98.9751081839602
98.9947929614171
99.0251935019314
98.9821489073534
98.9335338480048
98.9342702019112
98.9414216296657
98.9518968465342
98.9263647552594
98.9107077807033
98.9278130354294
98.941462948958
98.9707568851701
98.9755253153368
98.9609594973906
98.9486638994018
98.9400149941152
98.9644465355017
99.0143782454515
98.9948166251125
98.9620843441907
99.0172884113245
99.0641604683943
99.0142813733022
98.9722250409586
99.013638876687
99.0170404787011
98.9769846316669
98.9714172877352
98.9582983460854
98.9289385268747
98.9688837671401
99.0005157842918
98.9905798631773
98.996195344004
99.0102524135834
99.0005039334399
98.9944363658475
98.9807826412812
98.987051914368
99.0676265445321
99.0413853139453
98.9161460110568
98.9012762497466
98.8908502725699
98.9141596250844
99.0137487710572
98.9781518691884
98.9413663082646
98.9700544752854
98.9562559365471
98.9386613271688
98.9348363487233
98.9200926581034
98.8917538175758
98.8407053631064
98.846076540942
98.8563451824611
98.8806921022787
98.8789204008114
98.8961914586559
98.9395108916801
98.9170199394308
98.8955168505953
98.9079646327437
98.9355096178898
98.9379132705297
98.8876418157071
98.8932544113988
98.8665108688684
98.8503725271597
98.8598587563714
98.8384790290615
98.815151039657
98.8822040707007
98.9368133339811
98.9750147179668
98.9757042622887
98.8975213992195
98.831489305733
98.8640669477039
98.8891062378548
98.8786376009811
98.8881969496373
98.9057092486797
98.8622203691146
98.7934360586505
98.7487644842743
98.7548915255599
98.8034351542048
98.7694403346257
98.7323003062762
98.7814775014733
98.8051310711474
98.7566862084628
98.7564760066973
98.7617146643569
98.7832453679822
98.7827371757134
98.7759215839137
98.7948473022203
98.7386494989072
98.6638977420394
98.6708807712468
98.7927755981492
98.8040060546855
98.7096212365883
98.6944583370996
98.7038111065571
98.6729964342261
98.6351640271527
98.6693104495326
98.7486373073105
98.7446142375776
98.7236375434439
98.671537799641
98.6537771234514
98.6238408964594
98.6063276857151
98.6667537475807
98.6962730902444
98.6043514946658
98.5295567156954
98.5600972470451
98.6103849252232
98.6351331607674
98.6290571218486
98.633500569697
98.5926486886919
98.5616056860996
98.5824246432827
98.5400362467482
98.558027774216
98.6064644276995
98.5921134601954
98.6139014221782
98.6534659111887
98.583296814172
98.5292136728906
98.5391950882253
98.5163465773581
98.4968330093127
98.5158504629063
98.5256088125545
98.4963868597886
98.518809079765
98.5099867431177
98.5002032732082
98.5033704003142
98.4549992364008
98.4446680784543
98.4484065619776
98.454213422484
98.4804583593112
98.4719023672458
98.4607106246492
98.4724554485103
98.4967269634097
98.4872340429781
98.4212754757252
98.4279628022659
98.4731219630385
98.4331438693346
98.3375438507865
98.3540387790529
98.4422977517947
98.4508749644195
98.4344777412007
98.3834734136047
98.3282871999384
98.3690459087156
98.4176356288689
98.3925183470856
98.3932023091844
98.372404134442
98.3172696546623
98.3029004277225
98.2926713896874
98.3060302849749
98.3166759981101
98.2911381395529
98.2788709220708
98.280579566674
98.2881787963709
98.2705327160661
98.2756753148138
98.2415105543599
98.183888831722
98.2060402046612
98.1966518177701
98.1560183117929
98.1880147814523
98.2328759969324
98.2702185028624
98.2678702091793
98.1870089968368
98.1530306252413
98.1453081678069
98.144142171338
98.2055315887353
98.2063099048719
98.120258517171
98.0926063636202
98.0978743835241
98.0474958757621
98.0573943080213
98.0627646038355
98.0414719343842
98.0344851157219
98.0405509679403
98.0194510354173
98.0048135671932
98.0124546593246
98.0409716961224
98.0610981403602
98.0348374008134
97.9870322181562
97.9924233465916
97.9946777168438
97.9472064467751
97.9398163060334
97.9015408760937
97.8585691118481
97.8751552758232
97.8861746896305
97.8892446323279
97.9133356515392
97.918572423536
97.9412015393731
97.9015748678522
97.8322427810952
97.8537549174843
97.8767374238486
97.8597996665253
97.8187754347617
97.8058056016375
97.8767631224329
97.8986835781217
97.9186452569499
97.893350478304
97.8280620802549
97.73631097444
97.7012448294798
97.7623647745057
97.8213247361512
97.8368823997013
97.7791946016597
97.7022755826931
97.7358413379295
97.7148982934927
97.6825995619384
97.6902371008794
97.596441948578
97.5361449742267
97.5871318423412
97.5929127558661
97.5528439296565
97.4846918567229
97.4751362508748
97.4731959201857
97.4307276264585
97.4409404788765
97.4709859464975
97.4870142272483
97.5323571923974
97.5535048547899
97.5358160160925
97.4659041571167
97.4043654922437
97.4036780638485
97.4382239366434
97.4591733781147
97.4481560961073
97.4338416317592
97.4052650219828
97.3966561782471
97.3770342686093
97.356280663818
97.3707790076956
97.3585199993856
97.3072376922045
97.3082605827851
97.3429583276281
97.3791734468028
97.3207867296341
97.2607849241584
97.2725249108929
97.3570417065164
97.3564823813108
97.3578113830163
97.2613711155201
97.2357365235021
97.1858317879856
97.1975483877757
97.1702117077195
97.2043806876133
97.2183799925994
97.2699809969306
97.2520976791702
97.2171507572636
97.2083932090686
97.1898089203144
97.1933774107251
97.2179750848496
97.2298099403296
97.2070514700702
97.2447750113737
97.2835660361595
97.2585370239809
97.2239602966157
97.2541005999776
97.2852934669761
97.2116184613292
97.2287646830467
97.2521068842744
97.1854981628909
97.1877738140033
97.2213238462212
97.2144725524448
97.2351970430536
97.2262011791638
97.1994333456117
97.2016497223678
97.2133479992942
97.2276723147501
97.2196685713706
97.2016561018606
97.2305550534587
97.2438554480798
97.2370268519546
97.2692644162048
97.3266625308926
97.3579293392411
97.3257133093007
97.2812431061347
97.2906467231617
97.3541795638588
97.383088043309
97.3555266092244
97.3964565050136
97.3594002706039
97.2665943101575
97.3036648896495
97.3803649144683
97.3651875157645
97.3293385374126
97.3755093649876
97.4418557336218
97.3879959544198
97.3461578183816
97.3747583290211
97.4557781499459
97.4770728169979
97.4788275063642
97.4559496645533
97.3452956213244
97.239818660589
97.3083505981233
97.4270953519586
97.3917868026003
97.3868698082615
97.4730044444101
97.5478125996879
97.4217469970195
97.2916710923495
97.3925088973413
97.5232697006886
97.5210505795356
97.5078033556801
97.5340312930207
97.4897924797237
97.4564163295078
97.483665733407
97.4662325934092
97.4224580713154
97.4670793528385
97.5164704868408
97.4580306428526
97.333369836691
97.2999294231749
97.2834566730648
97.3435394720616
97.5158989358354
97.5953060007782
97.5239111345742
97.485424098206
97.4307980843218
97.4446437030912
97.5021201437164
97.4741579692945
97.4726886936464
97.5468802503864
97.5658176294852
97.5626959160416
97.6499663295157
97.6046180633324
97.5376155105966
97.5150178746478
97.5306065461272
97.5872452815513
97.5667738391823
97.638234615591
97.6843577997712
97.6111324955534
97.6807009745769
97.5977162122332
97.3889431991292
97.5161648397665
97.7903326844656
97.8350965247569
97.6670338091112
97.6494680576778
97.6153089939234
97.5027529187431
97.5908941950679
97.7022245154158
97.5642516429962
97.4321316884695
97.5778349078307
97.6049115603412
97.6112674585897
97.7099563378085
97.7355945116237
97.7893984525611
97.8039379424705
97.8572926245334
97.7869396428296
97.6311648105676
97.6335207299982
97.7550570905787
97.7717915417437
97.8134524223065
97.9449609242569
97.9816004746131
97.9099334790958
97.874492795958
97.8529536383823
97.9560730724336
98.1788473037206
98.0633192974639
97.9873047897378
98.0913483977059
97.9735652531858
97.9957149296287
98.0165692042205
97.9405365891661
97.9565109508971
97.9857406615612
97.9466167266242
97.9601455849748
97.9540207362632
97.904340568731
98.0297252860364
98.267328315479
98.1075692160674
97.937688694321
98.1782019940271
98.3785040273631
98.2322835840485
98.0697554833346
98.1034718592302
98.191451791114
98.3369274643321
98.5611399421975
98.675913609237
98.6995293143326
98.8257614731932
99.0346493043778
98.9280876802453
98.6579942749712
98.5642896591247
98.4815306190126
98.1630789309442
97.9648892805726
98.0511255551609
97.915582673861
97.6873296957495
97.5568340612078
97.3558227153546
97.2943940318507
97.3483565955412
97.3102115182108
97.2850372108537
97.3014577031605
97.2687833095995
97.1727534380852
97.1724533782847
97.2805738359449
97.2265478952252
96.9902878744556
96.8264663365772
96.8559820040652
96.9164465691539
96.8128384041355
96.7117278716767
96.6822836495529
96.6293243339814
96.4916207512986
96.3683178496511
96.4169016710098
96.4383761265561
96.3985682445454
96.3285597499309
96.2193955625613
96.1481405085975
96.0925680085471
96.000686314986
96.0019016506743
96.1167504497924
96.2096098703972
96.1608466704586
96.0953949942182
96.0960004035771
96.0271771192154
95.9621293697038
96.0486389633726
96.1468135129164
96.1702931077345
96.1723953556155
96.1821980392259
96.1601701931986
96.06873637049
96.0331551387849
96.0721369303403
96.1140239055578
96.1270860583062
96.0943369383168
96.0437822015798
96.0900645216197
96.2345057491104
96.2932710371066
96.208802956744
96.0515445641215
96.06753792724
96.184508699684
96.1778819333562
96.1034923949454
96.0817116244761
96.1026476869616
96.0662135446341
96.0197178235411
96.0938795944886
96.2251519498202
96.2347987198283
96.1643006991257
96.1973053177561
96.2592592830909
96.2491219255589
96.2328012252246
96.259102705164
96.2238443223879
96.1958284843586
96.2010744881167
96.2355093183211
96.3613930706422
96.4543731407664
96.4492043563582
96.4437646239905
96.4625257348323
96.4952959300675
96.5918165250665
96.617507956177
96.6185055754676
96.6189323833575
96.5546162341906
96.6140292540244
96.6916549833864
96.7583757704592
96.9051568592026
96.8703336251947
96.7812940386866
96.8579170442133
96.9236749754932
96.9016368112314
96.9301802264181
96.9883977458257
96.9238435337463
96.7912002908005
96.8811696688539
97.0348452624445
97.1212562210939
97.1357261788127
97.1811568305811
97.4369405393564
97.5086270812708
97.4338816631659
97.461942242751
97.5260020189918
97.5939307972001
97.6126257183021
97.6490945664519
97.8392626883075
97.9540675459345
98.0364185012834
98.0793889330722
98.0333959698743
98.0317420493941
98.1256823850263
98.16663692399
98.2503723871768
98.4820620039093
98.6298695156239
98.449199951079
98.1235597977272
98.0158733368205
98.2213945095308
98.5467003528453
98.7303566418881
98.5730740454424
98.3180167069713
98.384743879711
98.5333360887136
98.5103709820139
98.4394824223789
98.4408278507869
98.4070205295331
98.4427516839584
98.5813219120102
98.6704355582804
98.5936606945571
98.5386169367334
98.5747127664395
98.5826592726921
98.6750294287112
98.7097583546721
98.3860081805098
98.0426635606692
98.2415118308299
98.423344876204
98.32557676442
98.3871481456823
98.4303475142046
98.2620127621639
98.151870127442
98.1735539574453
98.2721987096113
98.2962761753507
98.1478597199061
98.1012991643582
98.2386894859976
98.2363252260076
98.1674191040138
98.2404359573637
98.338489129644
98.2396541600616
98.1678767068155
98.2281319794653
98.2349928507854
98.3240658065147
98.5058890097698
98.4470332451589
98.2352249180717
98.1984212660375
98.2278021079928
98.1101751378764
98.2557546820875
98.5076788204228
98.518854200524
98.5387054044502
98.7493375024896
98.7900107598119
98.6428147688843
98.6897870089656
98.794637113946
98.8212356049837
98.8495287775851
98.8144051847536
98.9159803919487
99.0107412612393
99.0787205201916
99.0534256582852
98.9624287974609
98.7650454023747
98.4142442000296
98.4135813189752
98.6126377884921
98.5807405137664
98.5522931513259
98.5979793661014
98.5751976761215
98.5468031001644
98.4895708948693
98.3746011755747
98.3978675405935
98.4186935731748
98.2263134610476
98.0220763857132
98.0651401774586
98.1369941938148
98.1146619719117
98.067176826392
98.04395377596
98.0320046087131
97.9574598890543
97.9234012734079
97.9398230909804
97.8261294894541
97.9052200137815
98.1389493032854
98.06266081333
97.9223039987443
97.9080869922754
97.9270144209941
97.8937480638865
97.8277888449304
97.7526159763973
97.6134944413117
97.6565163408979
97.7741776447488
97.8034299344433
97.7791670725836
97.6569618275929
97.6235013109122
97.6714506099812
97.6795530822136
97.6486918457656
97.6056820521676
97.587107361047
97.5694320947605
97.5710429498796
97.504785980561
97.4507362299485
97.4082566419834
97.4310125460594
97.5532567586764
97.576965060824
97.5164907137242
97.4992760983221
97.5355118988685
97.5362109064066
97.4831615112917
97.5036290672078
97.5321386334806
97.5052214853289
97.446132872958
97.4895980113895
97.5263540021279
97.6021078199067
97.5930486255094
97.4857804615224
97.4269203291944
97.3760585444198
97.3520865192352
97.4064687549609
97.4661731230317
97.4729040216121
97.4692783283969
97.4713409883256
97.3948364951958
97.3733831681808
97.4629819436027
97.5310450728825
97.421370393195
97.2956225630083
97.3450497378643
97.4190790717566
97.3196407114886
97.3054455985448
97.3673888756024
97.4073532018667
97.3700921409732
97.2829103052106
97.2758812844906
97.3533252326965
97.3789273605977
97.3012137631382
97.3000823842084
97.3359651655043
97.2829832028714
97.2635442510375
97.2711220551089
97.2451960046267
97.1804907555491
97.1653309697352
97.2261713714105
97.2372996669006
97.2704228723746
97.3190236544595
97.2315844767931
97.1384109731793
97.0879441985945
97.0907023871124
97.1417066504483
97.2299154385566
97.2684448996901
97.2214729541783
97.1300603571378
97.1279788764196
97.1529967702676
97.1071119948037
97.0318662723966
97.0625661645051
97.1374189534504
97.1496841285368
97.0715512570466
97.0535926254376
97.0944550592092
97.097778723195
97.0616094509207
97.0695048525656
97.0213039979213
96.9342460055005
96.9790287697256
97.1535099029489
97.1818608200934
96.8978107502031
96.8526940559222
96.9017647465008
96.9092787419643
96.9189467926073
96.9445179033956
96.9391567209201
96.8949681179969
96.871578614629
96.8486641140725
96.8599585292827
96.8684289680388
96.8380649566649
96.8263133306352
96.7929742478288
96.6700028594074
96.6693305756116
96.7187434441721
96.7607021498306
96.8181654431436
96.7253213986668
96.6927612437605
96.7042602474374
96.6479070424139
96.642399556886
96.628083142178
96.6323996624567
96.6339757070403
96.5876856337626
96.5341757521274
96.5485999557695
96.5694101947234
96.5654766272907
96.5487709136089
96.5217980348781
96.4261717305196
96.3366921299067
96.3993338884327
96.4315502684537
96.3717029619064
96.3469643906439
96.3591067820532
96.387142644156
96.375638504118
96.3159954313018
96.2544630346474
96.2736604285284
96.2159038920857
96.133346891624
96.1884321510743
96.2359146565678
96.1647944356878
96.1242277587804
96.1885032923846
96.1718955190687
95.9314344819117
95.8921434215215
95.8775257523495
95.8959468221224
95.9264396563224
95.9191397237017
95.9202029693792
95.9130367906634
95.8295679894691
95.7486779581927
95.7854611330319
95.8001229826928
95.7371199848451
95.5839586472078
95.5520014317128
95.5618888094365
95.5556381539491
95.5474088047189
95.4979590519997
95.4549843478783
95.5265741766256
95.4913419489951
95.2962470073528
95.191184577807
95.2001120982598
95.265369206563
95.137047511242
95.0204845284217
95.0423638282371
94.9936368905999
94.9640880406119
94.9681205225852
94.9272190205064
94.7048766320876
94.6194971602388
94.6989080610604
94.6676540110188
94.6234880881563
94.5215541927481
94.4037720925706
94.4047382679451
94.3590369252059
94.280599130609
94.242561491563
94.1151914179054
93.9409673438037
94.0080233300487
93.9012630126453
93.7679912534691
93.7173368272259
93.687748093199
93.6445126987042
93.5521136800468
93.372794140713
93.3008397729876
93.3298198045439
93.257559999467
92.9969810765112
92.940504834511
92.931438293609
92.8640178264326
92.8222435389795
92.5854332588711
92.2123131916635
92.1858868231785
92.2640785307911
92.2344539075039
92.0840507443156
91.9538509233625
91.8993323098558
91.7765480960713
91.6538069905623
91.5560746407267
91.4233418588381
91.2125757691641
91.0317729433466
90.9098029984535
90.7738055460592
90.6620170062119
90.4953985426125
90.1768073874644
89.9423329591127
89.9321460209677
89.8160572127239
89.5241997843108
89.4048408461117
89.2980751577783
89.1574443690212
88.9455293766025
88.6853942656422
88.5080025261809
88.331622982396
87.9897839965763
87.653205119281
87.4968396854161
87.3002774012834
87.0993079623783
86.892498390334
86.5841825146428
86.0669994765038
85.8262859677338
85.8851919006646
85.6938438133759
85.3301525848244
84.875497750286
84.6959007011202
84.5797146475711
84.295347906123
83.9438330778852
83.5929651295771
83.1714329745442
82.8329171283599
82.5196562967515
82.1841472736219
81.8579873342235
81.3623071437066
80.7084799736415
80.5090821673662
80.5781626069548
80.4423497139106
80.0770406037963
79.6350667977292
79.2920259709856
78.9388738391249
78.5259836034964
78.0178644742027
77.418515177554
77.2515271498744
77.0997381225874
76.7040829664234
76.2337072727246
75.7990010813632
75.3608954831733
75.0378323625854
74.9448598418153
74.6964786647756
74.318073036164
73.8717879662339
73.370761827218
72.8367750518647
72.4701981838504
72.2815045422487
72.0029310376552
71.647353913629
71.2560784890844
70.8587834328198
70.4440430563047
69.9098356985971
69.1213847417255
68.049679170029
67.6417153562733
68.6371309684973
69.04888996205
68.7770642654731
68.2030109381724
67.5504047814661
66.9736918706078
66.6985529218808
66.9252950859636
67.0981016416568
66.9117714796379
66.6101216945334
66.3446117605807
66.0532863030329
65.7822047978711
65.4572444753933
65.0660083072677
64.6110093110254
63.9750976010306
64.1176949809242
65.2215833540066
65.7496642423878
65.8199187064404
65.7712397516907
65.7014546171553
65.5569336575128
65.3182696105383
65.3268764875451
65.7337064490155
66.0869772704945
66.0363291653119
65.7972146830202
66.1774653676588
66.9916189924268
67.5314997967696
67.8254674473029
68.0883103680572
68.0967049322278
67.6155721923807
67.8000960476306
69.1210699261145
70.0679986974015
70.5496383601589
70.867823494802
71.1759127781233
71.4140481171903
71.5683847135817
71.8982007814315
72.3152699000343
72.72738423725
73.1992023665511
73.660606754784
74.012128356535
74.3352227997467
74.6849201107961
75.0423225903903
75.4609904657047
75.8893989291298
76.2495530949937
76.5513415338982
76.8306433405621
77.0986672111532
77.3559943178082
77.6954479143287
78.0815997792615
78.4137812835905
78.7153543503537
79.0014437331218
79.2737958123985
79.5544683103892
79.8235881797825
80.0633356802587
80.3109487572285
80.5565616257696
80.760271284445
80.9582222808917
81.1907988998063
81.4167669982694
81.6211450818723
81.8185014831788
81.9281429730812
81.7463077064204
81.3770130253384
81.8569492206517
82.7439704940541
83.2356380454954
83.4247020987111
83.5271002247586
83.3930085764828
83.0484444013025
83.2303858303399
83.8320776235577
84.2179226943168
84.3320172588448
84.2842231839232
84.3765605731377
84.6146967807347
84.7684119256105
84.6434992979421
84.1166921487381
83.4086383726292
83.0069601516076
83.8903395500022
85.4096209331047
85.9298373212347
85.8419702327044
85.7029896006288
85.9141519389278
86.1090830020225
86.0591302756028
85.8343380943405
85.8463244474209
86.1378715109866
86.3289505583263
86.2944849957955
86.0581671436306
85.9658260499188
86.1100992163839
86.0861679425769
86.0583036994023
86.1284000043852
85.9066219415903
85.9062688327398
86.7976007846841
87.3081484080325
87.4645707080632
87.3871036730964
87.0966243527071
86.8027504616914
86.9477665195516
87.2058357762608
87.42750690683
87.5498705520448
87.4752562593755
87.3224896428935
87.3110728550027
87.2616150586617
87.2855779473247
87.5087193493487
87.5774060799062
87.3430665162114
87.114481670038
87.2696150241578
87.8282092154804
88.0979586735551
87.9360383092392
87.7658027099286
87.9257412145467
88.116986226789
88.2050296399986
88.1626332649338
88.0843028939998
88.1172401053807
88.097518756715
87.9706494087569
87.818582545276
87.4911414459379
87.1932615942352
87.7189317977327
88.4789386300105
88.8183022276656
88.8489199172371
88.708148710759
88.6147578497559
88.4942654297028
88.3017075004163
88.3211327057427
88.3536336314647
88.2426245937635
88.4334852207471
88.7192123130242
88.8075809765388
88.7981186439437
88.6764941329889
88.3774397766041
88.2100328737823
88.4412825653282
88.6164453095354
88.6988739009492
88.8375525171727
88.9847845368946
88.9953781929661
88.9387374423098
88.8515341555377
88.7988659946578
88.8207028865853
88.892409788138
88.9153778027027
88.8731212059781
88.7188350070517
88.6763485119662
88.7910849188588
88.730576284965
88.5299712963442
88.5782001229957
88.9114178380973
89.1570108005981
89.2440529353895
89.2483922711907
89.2158407800341
89.1146850839571
88.9258741618611
88.7907062840355
88.943570449999
89.1517323428606
89.2153958474076
89.2129840443475
89.1003132821365
88.8980397409968
88.6719367697752
88.4430204656069
88.6167910697742
89.0989385793948
89.4183595542413
89.4670455247149
89.3663758268091
89.2976318009879
89.3002986277582
89.2855529910543
89.1692939168944
89.0469392831598
89.1136419726623
89.2394071675584
89.2899814460826
89.305926590583
89.3111135661806
89.3174397637094
89.3032895726347
89.2965031019804
89.3100467902286
89.2965488624679
89.1140457461774
88.8392205613761
89.0366494048482
89.3913021928913
89.5103419175992
89.4703017270465
89.4641272590569
89.4269574276553
89.3027656900516
89.2650578310231
89.3672164675601
89.4417345152036
89.4769641822532
89.4788867046393
89.3576816008591
89.271088736179
89.3428069550173
89.4598484022952
89.4425030022073
89.1547416653762
88.9807488433601
89.2005123647005
89.401837541918
89.5152542731715
89.6010660256124
89.6082450695911
89.5911019729339
89.5358562651816
89.4654883318433
89.4485466316494
89.4430266680159
89.446831252565
89.4743571528164
89.48327496791
89.4306832242789
89.348095847758
89.3965368181986
89.518551733187
89.5612486859443
89.5819230506674
89.5312558104512
89.3597819666146
89.2883438512065
89.420955791053
89.5320359007066
89.4633374500346
89.3286288135847
89.4134413366674
89.5974259286271
89.6609167786531
89.6357777182925
89.6089738010252
89.5994878115909
89.4578646218636
89.3065145346994
89.3920283496125
89.5406717016345
89.5976166781592
89.5930963257312
89.5726483431952
89.5454937402441
89.5188968149649
89.5063308571319
89.4893804604204
89.4792105838224
89.4920178988582
89.4809914251936
89.4069704945288
89.3165704574103
89.3690142653407
89.5051495503772
89.5773396841536
89.5831373467195
89.5273781835117
89.475843497148
89.4821707203311
89.5076561789387
89.4902578749718
89.5009598666234
89.4365718610204
89.3188004663183
89.3561715715599
89.4659346300047
89.5680567832687
89.6092758878162
89.6191229235557
89.6027029415125
89.5753652263842
89.5318182234998
89.5113826941272
89.5274678990354
89.5437039607261
89.5478230855384
89.5447773832197
89.5431979022429
89.5499621516825
89.5619870646283
89.5672805554852
89.57367526203
89.5761765071813
89.5903263007568
89.5983287808815
89.6067894722272
89.5837291315769
89.4864705340344
89.419539075575
89.4534168970081
89.5635344860275
89.6303565265384
89.6825813443108
89.7231854120386
89.7254290371113
89.6875396057074
89.661217053241
89.6678385189208
89.6690725720381
89.6382690326651
89.6331125398224
89.64376466274
89.6537036200756
89.6707519473751
89.6682938714026
89.6568232277106
89.6512367229273
89.6559931784843
89.6410370761297
89.6284094506251
89.608350698027
89.6219674806813
89.6471466088308
89.6714846184379
89.6898365166279
89.6926379090574
89.6826916404502
89.6603322215452
89.6729194862475
89.6958998127203
89.6997183458267
89.6887908544997
89.6845106163452
89.676930176028
89.6757754668021
89.6825116275439
89.6894592105411
89.6958337628187
89.6919796701555
89.6878231750212
89.6820815989346
89.688811469301
89.6850453405986
89.6859495052051
89.6845900829415
89.6755834592537
89.6922595803897
89.7121549133271
89.6992543260655
89.6970155751998
89.7051910906657
89.7018988488573
89.6998784867848
89.7001257677813
89.6855814293217
89.694361252013
89.73138463547
89.7385541992875
89.710380677756
89.7126241302952
89.7211193176697
89.7180565199876
89.7130112328841
89.7137581692934
89.7185598344343
89.7100320436865
89.7114960811635
89.7214981894726
89.7156822859327
89.7245481517764
89.7156190405592
89.7063537427779
89.7268211138177
89.724649594917
89.7259117475515
89.7402384206851
89.7489281008976
89.737123349449
89.7244258780572
89.7362614197265
89.7383311670939
89.7420909163481
89.7431038240357
89.7292442396796
89.7285990938435
89.7393169137111
89.7538766449891
89.7517513738165
89.7466263889439
89.7579263263149
89.7611656820537
89.7583217387036
89.7490651195223
89.7513171007736
89.7636864036841
89.7806471413461
89.7785787371788
89.7823698627858
89.7733882519009
89.7554740288272
89.7466486360735
89.7529591629661
89.7661751234453
89.768846776908
89.7623244825652
89.7616012652662
89.7426484731352
89.7382400314397
89.7455818896401
89.7433964047911
89.7383054028387
89.7189046365581
89.7104030851298
89.7104872150264
89.7177444111919
89.7183535233301
89.6984361769243
89.6910938822776
89.7022137836992
89.7091994398044
89.7043128533595
89.7033128171961
89.7249760623479
89.7419204007045
89.7392133987275
89.7496830910668
89.7670864840082
89.7641116998388
89.7327052395888
89.7092529829657
89.694005780131
89.6986979317584
89.705763782543
89.7221629871757
89.7374192840341
89.7478918508113
89.7606387274019
89.7549881067223
89.7578860220566
89.7577518801791
89.7427590479939
89.7465216223974
89.7671245775891
89.7749409404557
89.7613252340254
89.7577791071795
89.7701582258259
89.7798774446278
89.7742929578616
89.7911844838648
89.8021995579285
89.8070895436991
89.8174775806059
89.8339651796934
89.8322384344831
89.8341887044716
89.8454791516412
89.8536485331317
89.8670146878226
89.8645797932503
89.8504726395715
89.8485555798
89.8629097181781
89.8718836597485
89.8833838188705
89.894755469105
89.8947000319556
89.8898232253896
89.8944797150746
89.8957079803857
89.8902652551263
89.8948534203111
89.8894239600272
89.8794087813956
89.8920752771947
89.9012364716196
89.8961217331278
89.9004813506377
89.9050884989194
89.9051781696289
89.9067568894029
89.9020351944377
89.8948129844932
89.8970350092537
89.9006589430332
89.9066868965706
89.9096918339433
89.9131924590352
89.9159616206669
89.9106435054147
89.903538077762
89.9040361905783
89.8920544961941
89.888572901244
89.8990892831715
89.9047356803902
89.9018491628077
89.8970794594
89.8943685522224
89.8798489839619
89.8804169442027
89.904488982507
89.923193745844
89.9146341338167
89.8885971571761
89.8903492650486
89.8882459429145
89.8806684829422
89.8959103447218
89.9141219455097
89.9152498951261
89.908698763976
89.9027255382125
89.9013354668281
89.8996758750447
89.8958306070589
89.8904483945892
89.8752068274283
89.872418030406
89.8766092640936
89.8786540528776
89.8822384252904
89.8790268753588
89.8811906322988
89.8838997113408
89.8770346666495
89.8729076764564
89.8710282003495
89.8636612674576
89.86179230549
89.8629560992266
89.8599158890774
89.8593105961315
89.8526465160261
89.85539626506
89.8470473917228
89.8342672222084
89.8390052297836
89.8375328241119
89.8331966752127
89.8362698905535
89.8403780549216
89.8179270070642
89.7940240165339
89.7878268271927
89.793698528722
89.7987291136959
89.7971697137618
89.8079459159307
89.8121351466509
89.8033645207689
89.8024275404713
89.7840034187159
89.7785241265578
89.7899499571581
89.7880856718569
89.7702640096412
89.7573193730867
89.7487383198363
89.7389378441682
89.7317630594729
89.7369191096123
89.7485634112344
89.7411840717803
89.7204284965653
89.7188155794481
89.7208700693224
89.7139956496637
89.7082540486621
89.7063051716373
89.6905835831345
89.669197924651
89.6720287686408
89.6741203295467
89.670676295204
89.6634448217899
89.6599220551443
89.6481456859733
89.6321288738807
89.6197026765483
89.6171729558047
89.6232549827781
89.6183216764735
89.5928420703989
89.5747954609267
89.5816684602289
89.5822616761091
89.5672795318304
89.5601887027866
89.565700956727
89.5588264881427
89.5508123146137
89.5380651932942
89.5225019092004
89.5181582287759
89.509385659756
89.4992760443883
89.4944603723643
89.4834040102796
89.470695851086
89.4590863390177
89.442940345081
89.4217003862021
89.4234894252366
89.4287329053209
89.4092470310049
89.3973598394949
89.4113986677939
89.3791381830563
89.3271096869185
89.323968638061
89.3341271954463
89.3307180997626
89.3204604926788
89.3122976620398
89.2927604167067
89.261700096008
89.2569342910526
89.2644237656052
89.2524337005744
89.2191715954561
89.2025340069704
89.186917119535
89.1553432371857
89.1375416941097
89.134704918779
89.1277343085121
89.1277757915773
89.1133845931074
89.0751989168305
89.0418472968662
89.0397311238411
89.0318082395034
89.0067367960609
88.9859599931553
88.9632352129397
88.9373233964019
88.9264621740632
88.9130985460967
88.8949402180531
88.8821235780153
88.8678185687784
88.8492925957634
88.8277520678553
88.8127131560489
88.784554518913
88.7421574421906
88.7106976886095
88.6914411945199
88.6832760859832
88.6545640246603
88.6079421861209
88.5850138969661
88.5589645279203
88.5323075701782
88.5110349962379
88.4958798925659
88.4773794696091
88.4557714624762
88.4331600709542
88.3916582608238
88.3624361426251
88.3293022524207
88.3035166672812
88.2817358028834
88.2323162917989
88.2029210541014
88.1951270991745
88.1683154732199
88.1218953782588
88.0784506658371
88.056347788529
88.0365639632519
88.0040018417823
87.9573449730128
87.9211234952662
87.8931273976097
87.8507559030579
87.7918974015623
87.7672796748152
87.7584428789786
87.7308379549121
87.6909773236716
87.6282798799658
87.5658372665148
87.5294527717655
87.5234039353373
87.5055689073253
87.4467819276013
87.3757630001278
87.3273312809938
87.2950314318633
87.2556220447074
87.2117950641087
87.1722202813766
87.1315713324553
87.0681483433668
87.0077791447919
86.9669225189294
86.907988548645
86.8427154715725
86.802981020522
86.760497355418
86.7184067571758
86.667598258054
86.5894330371868
86.5204242167805
86.4773746810985
86.4245088265996
86.3753693198236
86.3184849403567
86.2495155666388
86.2028018252876
86.1585664860388
86.0823133889033
86.0057132211881
85.9442944457951
85.8741106041589
85.7997388762601
85.7367464673191
85.6946484780099
85.6306515339044
85.5593965518204
85.4789523239146
85.3775408657339
85.315009821424
85.2552546215594
85.1850009727938
85.0993516975654
84.9999789386681
84.920841314364
84.8435132573758
84.7556597327798
84.6674183016476
84.5918729410351
84.5307405621625
84.4407164414662
84.3422656457341
84.2669763712958
84.1862695618228
84.0786054892612
83.9738239939966
83.8734766244105
83.7840853440465
83.7164697276934
83.645798741097
83.5466089801316
83.4452911099878
83.336091534017
83.2155187701566
83.0915916445947
83.0066991112777
82.9389497699223
82.8248444096161
82.7031655350694
82.6039594478811
82.5000878451942
82.3801085688319
82.2780370387907
82.1946798360269
82.0881083862892
81.9451378055362
81.8156714707677
81.7181579682551
81.5929417065847
81.4542227425993
81.3305282805323
81.2267306749711
81.1063913812133
80.9792782357047
80.8300719955797
80.69567435422
80.5963122892809
80.4987384452961
80.3692200688329
80.2189874347948
80.0784522135499
79.9704971795193
79.8264536277751
79.6816421823506
79.5443138767308
79.3994283947468
79.2585996815438
79.138064673385
79.016759688818
78.8864000046657
78.7230904805934
78.5603090007237
78.4323919842728
78.3169546452686
78.1658994792884
77.9976769397463
77.8420243796455
77.6967147413815
77.5519528723423
77.4291156216823
77.2835514672651
77.107057167795
76.9466378896241
76.7975572135333
76.6278138242239
76.4369879665358
76.285119545013
76.1987538858507
76.0547453873568
75.8727324220567
75.6954704917863
75.5356616612305
75.3958471340647
75.2672053353029
75.0698999936044
74.8684400462196
74.7259674613029
74.5682019990125
74.3812066323015
74.2247506263708
74.0890114097034
73.9075134526854
73.74194829777
73.6398769541097
73.4742282670014
73.2648254759174
73.0632115654517
72.86887593311
72.7015609383386
72.5751211753929
72.4249514992439
72.2327131878469
72.0584117742233
71.9232754203533
71.7397127157263
71.5746366625942
71.4249879399832
71.2387975010473
71.0345822558164
70.8497195962383
70.7178262617064
70.5532498108493
70.3373556443079
70.1423527915773
69.9790825223216
69.7835162882593
69.6099754127737
69.4812875618912
69.3074917136369
69.1052552416726
68.890284485224
68.6936775966451
68.5306935161088
68.4211338020193
68.2566611072109
68.0640526472933
67.9090751971012
67.7452048803599
67.5789476430473
67.3834693195947
67.1634843911692
67.0060478330133
66.8483748106094
66.6596465094944
66.4513586030021
66.3070974851445
66.1619028694979
65.9786428086216
65.745394006067
65.5277834694982
65.4005059059444
65.2483728316086
65.0348267503483
64.8801243346569
64.7341416774729
64.5723956913148
64.3610447915076
64.1491369536113
63.951261697566
63.7481323190526
63.626869629367
63.5139637207776
63.2927186650902
63.0983870894249
62.9128852622817
62.7119806616739
62.5076832286356
62.3686258894309
62.2009240818584
62.0089301959441
61.8542661138327
61.7101848590897
61.5401557007464
61.3177079283692
61.084455119294
60.8944354625938
60.793486827639
60.7142441174645
60.544765855382
60.3441960250062
60.1755198001765
59.9808535894229
59.7536212889435
59.5629125127372
59.415467976777
59.2128292368663
58.9872066705587
58.9011950672826
58.7798671357328
58.5770750160029
58.3912372361352
58.2179288059332
58.0735598339286
57.9280756657745
57.7099045448445
57.5128006667215
57.2898919939336
57.1003031477593
57.0005351129393
56.8797196303489
56.7181730638313
56.544398110001
56.351143717941
56.2140778980284
56.0791425883089
55.9179130775628
55.7209765695731
55.4909437817212
55.3150339370561
55.2471785030169
55.1342732453996
54.8691086642454
54.6202095555754
54.5488512358397
54.394504710961
54.1783126074057
54.1032238846013
53.9978431767632
53.7774003808786
53.5894866046519
53.3926967135819
53.2192041549416
53.0127959042231
52.8005414298716
52.6695246161418
52.4628328282522
52.2936912567057
52.2842410244529
52.2476008146922
52.1068695949498
51.8332810970095
51.5654887276824
51.3514618528668
51.2169561962465
51.063167291475
50.8747600707106
50.7260294232043
50.6172789709623
50.380474601434
50.2047674194248
50.1750556616881
50.1196543072523
49.9249387818716
49.6345314927237
49.4667795865741
49.4019748605189
49.2494648379397
49.1125619883267
48.9464588270877
48.6960723522504
48.5931626101178
48.5449443582176
48.2869533448189
48.1095329069453
48.0020422174875
47.7851152695698
47.7047510071895
47.6780864594308
47.4692442356888
47.2051702587038
47.0122007445806
46.9347403653743
46.8232532609159
46.6911238742344
46.539198781933
46.4096451695162
46.3560484030163
46.2069064433924
45.9020785781178
45.6648517891101
45.5619164950141
45.4796400664887
45.2660299689791
45.1200285665387
44.917967115084
44.647660330131
44.5049239521674
44.434141416226
44.263797326985
44.1374692888723
43.9944962055974
43.791291993489
43.607720345885
43.5595611570214
43.7170594023627
43.5493276493267
43.0738403126319
42.8465284053109
42.7764873206809
42.8613179458662
42.6730638573584
42.2898200979856
42.188785150539
42.2518395881131
42.1005754989128
41.827807466069
41.4981418080062
41.2564152337205
41.177531600315
41.06850671061
40.7855507385497
40.2614900682731
39.3718397838402
38.4522546788253
39.8522520826905
41.0021037176739
40.3560039525668
39.9231466937107
39.8000489355257
39.387119301034
39.0967187056294
39.1786985358802
39.0411193758155
38.626224065243
38.3489280448698
38.2986116674098
38.0339974574964
37.5644355601779
36.906523007703
36.6999662219231
36.9889436108576
36.9071690643844
36.1310765991823
35.7636136506791
