3596
4000.36533379555
650.420452594757
1
128
2
99.8232510304895
99.8279971030113
99.8866906946968
99.8907857045312
99.9013311495501
99.8822824716614
99.8119240347019
99.800056783102
99.8098149764381
99.8543555221334
99.9453316373972
99.9124147283558
99.8494256578438
99.818347739036
99.8043399678944
99.8500381002071
99.8629668744065
99.8650111541781
99.8014962583384
99.7785163269226
99.8268949493575
99.8438672334003
99.8643834814392
99.8635552067817
99.8653648805305
99.8762915243613
99.892716891135
99.8637911195033
99.8160056546827
99.8428046567924
99.8327711904314
99.7778311066724
99.756868389709
99.7894964616148
99.7988451686863
99.7915753919896
99.7867687877633
99.795180159092
99.853091966777
99.8530870066733
99.8595095877455
99.8833375611332
99.8560725848577
99.8247629122604
99.8278217736873
99.8005794993045
99.8027472797109
99.792403006341
99.7870267586731
99.767071305778
99.775847109078
99.850123259495
99.7904893641683
99.7290462495918
99.8171958607804
99.8564641756796
99.8440935983028
99.829912683859
99.8665893134457
99.8952217645889
99.8849717883506
99.8235376679359
99.8105649548292
99.8580341592377
99.7712279488525
99.7437902618453
99.750479231351
99.7559960510365
99.7491453476847
99.781688699249
99.8036968147985
99.8510234223219
99.9029921730888
99.911587205056
99.9136769872047
99.8765478345822
99.75989149344
99.7550832521997
99.8397518581118
99.8583405078967
99.8626334273534
99.8100574842778
99.7817628487333
99.8314037758911
99.866779369407
99.8726783341927
99.9634616009206
99.9611700346892
99.8765514720208
99.8372375398041
99.7634787131327
99.7238350084056
99.7552047200687
99.8180996410329
99.8307862656835
99.8163023728463
99.8202050631289
99.802999823179
99.8037502504787
99.872363657055
100.011857000991
99.9472943512687
99.9468234355174
99.9031069117711
99.8077467932563
99.9703213683336
99.9723238982678
99.9000259355822
99.9079757089513
99.8833359948839
99.8865838054471
99.8516516196717
99.7521914241271
99.7625762888147
99.9040262220307
99.8998547857638
99.9010154077553
99.8613245463023
99.7498201570945
99.755210447699
99.9675884588582
100.010046256561
99.977854653172
99.9578886168921
99.8609881972375
99.9020184812035
100.030966095783
99.9999247375623
99.9749424394031
99.8918345460361
99.7339503548153
99.7181303840633
99.9386770622183
99.956894738786
99.8142302962115
99.7622061557569
99.8549236073675
100.183384515142
100.201670022883
100.029632350681
99.8489609143293
99.756686578569
99.8114120403853
99.8009951254803
99.8008610440687
99.9922659517704
100.137623863072
100.008717839132
99.7858748680728
99.7731217001842
99.8896290369456
99.8455661994806
99.6756833909725
99.7643010224191
100.046494642314
100.181671132977
100.342124105822
100.188100005734
99.9766875273477
99.9446846339309
99.9272839535091
99.9238079813903
99.8847063898061
99.7731659208418
99.808062247394
99.9341859304839
99.8271078394839
99.7383672730814
99.9127606663942
99.8826956396647
99.8350370454206
100.055494995225
100.043894180733
99.8575370552248
99.9940959520645
99.9421970976157
99.7354857792229
99.8175661394188
99.9794338148448
99.9582144528982
99.8616199554379
99.7434832428123
99.6951729978558
99.7786159875401
99.8624063526528
99.8791144171054
99.8367568210543
99.7726011157479
99.880825198462
100.033861973318
100.075032553965
100.025287009213
99.9391831060462
99.7421928501973
99.8069725011391
100.032219730032
99.9927565013924
99.8622451782995
99.760028808122
99.7456576522197
99.8343548652188
99.8067060944873
99.7165657517646
99.6632926118076
99.8162250817298
99.9748227999797
99.9254612837682
99.819777369287
99.769430066616
99.8461949898336
100.068482648111
100.091539568937
99.9085054924664
99.8135998399063
99.7359117441713
99.8092883053309
99.9102204655941
99.8227059372
99.738966791684
99.7672316420883
99.7431637993926
99.7101872097892
99.6857060890404
99.6849380579964
99.6960424253789
99.6776632155101
99.63229134138
99.6428960160391
99.6911473935238
99.697791943612
99.6610275318137
99.6787055168353
99.6785976547198
99.5996989758889
99.6709004875482
99.6926729291343
99.6833263681255
99.6877603612368
99.6847759278103
99.6821101721722
99.6370669684162
99.5992798384273
99.5958093557068
99.5637740740823
99.7686877749194
99.9106887919896
99.7700781421735
99.6595852059144
99.5474352791225
99.5672246525474
99.5894633022517
99.659904314878
99.6955958609122
99.6624666130929
99.6638174993869
99.7651830078122
99.744635644239
99.6180105980984
99.6137500112946
99.6786123001478
99.6031530379493
99.4600902444184
99.5272509198525
99.8437736036826
99.8962446197639
99.7856067929846
100.015770436445
100.074016831875
99.7803344760313
99.6341325714147
99.590686349086
99.8751632005985
100.010795510464
99.7293651039318
99.5864317149722
99.5120712839073
99.4520390806545
99.4137977803238
99.4544864576005
99.52435975008
99.6396302908639
99.7319310322727
99.7169407736627
99.5835816674113
99.5811064413217
99.6539781756855
99.4746888159043
99.2700713645801
99.2060519296087
99.1665746182663
99.1261956930616
99.1590641373317
99.1702241504943
99.2048173626641
99.1108349872084
99.0758702012059
99.2005562943563
99.1052214862905
98.9737879411682
99.0546280282959
99.1283564835183
99.046041762254
98.9144910731261
98.8205697302345
98.764949412923
98.7436175804273
98.9232165396304
99.0665313780404
98.9673948586079
98.8894838286599
98.7663824103195
98.5582954070806
98.4270510971598
98.4089885524038
98.3979109716185
98.3973668339917
98.3611477735025
98.3379534001165
98.3062274207704
98.2382899312382
98.1993362590037
98.0803734567098
97.9370242769314
97.8399057874133
97.7621298339315
97.7442698720826
97.6922496270487
97.5345845290312
97.4392814388314
97.4511821908171
97.4763790892984
97.5396661691834
97.5635310232068
97.3175124082321
97.033258644107
96.8107692238952
96.6470909678905
96.5230914588354
96.4019161013447
96.2602100983044
96.0804227986752
95.9786931435908
95.9297865794188
95.7627725474083
95.6365533168622
95.7174672501046
95.8463640377756
95.6510682400415
95.2185800921985
94.9328222701173
94.8140257105606
94.7620418426728
94.5973198074823
94.4302738531116
94.0649734561913
93.695248022681
93.497730365162
93.3485071942557
93.1616074904853
92.92459820866
92.7355566925419
92.5625136543818
92.3841842756269
92.2155662646909
91.9774137471021
91.79344253327
91.7544141150621
91.6749708949015
91.4467703809676
91.1558134217791
90.7568712031437
90.4543623486087
90.4346253891357
90.5018191779221
90.4040532386407
90.0822332751763
89.9093147093509
89.733170710824
89.447454837502
89.1780678102946
88.9003172987295
88.6919599388848
88.5207794193709
88.300155961306
88.0297113435318
87.8628841126551
87.775145063
87.6379160917934
87.4411822354325
87.2136454672075
87.0159563585634
86.8796779746409
86.6815492652101
86.4464689683329
86.2172505657847
86.286556317346
86.420272650035
86.187119357701
85.7837868414653
85.6404419054418
85.4944221601606
85.3023626155805
85.1054738285921
84.925864366269
84.6307737912283
84.4245652699195
84.4360994138882
84.3975260020572
84.2380465749532
84.0121969555112
83.8141441978844
83.6884542371672
83.5159626729636
83.4542365782446
83.2957001997617
82.9816091433261
82.8601527371625
82.8839875525808
82.71964968923
82.6006595817046
82.4349430573118
82.2033632486053
82.1326189194564
82.0261681823345
81.762871800079
81.5992885151437
81.5138154913661
81.2729616087007
81.0736919835446
80.9155196558633
80.7508095312237
80.7270108369633
80.6386279546146
80.412745647896
80.2370176705608
80.1743287381181
80.0565746211453
79.809324959045
79.5061712748768
79.4409274956873
79.3926419918074
79.3555626348525
79.2399354666214
79.0422644899145
78.8315453951392
78.6509223396193
78.5430073777306
78.4172268638664
78.1872495862751
78.0331822650973
77.897730280061
77.6875298091193
77.5342759303497
77.3802387913711
77.1615779582738
77.0283148770186
76.9350436062566
76.8327440065652
76.6804497170215
76.433465890982
76.1844172123538
76.0214241307211
75.9119024228068
75.8075005384664
75.5971951814421
75.5145333825928
75.5201324069625
75.3430674315195
75.0677438575918
74.9064027810405
74.7571250795534
74.5540196747806
74.3956124977738
74.2546319553965
74.0631040031439
73.8697808733316
73.7048478275388
73.6657452680975
73.4840583535264
73.2117028143004
72.9769899747857
72.811948979053
72.6654829936383
72.5928273841693
72.5093620744689
72.3527784655538
72.1355884618647
71.9098364836046
71.6959541229912
71.5220856290702
71.37905062891
71.2255796301858
71.0964248701728
70.9243761339592
70.745417642844
70.551433203044
70.3601889080818
70.297174131671
70.1618676864644
69.9697266129146
69.7934266770948
69.5910549943306
69.3463288284968
69.1963957912803
69.0928342534538
68.9788912426868
68.7841560435676
68.607605542695
68.4978845182696
68.344352552803
68.0893000799459
67.8496214538334
67.6965391108023
67.6161235128829
67.483587791072
67.2701917910875
67.1641945886858
67.0566692690056
66.8183197258271
66.6654291155036
66.5116590166136
66.3066488510643
66.1107756057751
65.8916541043182
65.6858746208496
65.6871923619036
65.6451413431566
65.4344495823594
65.1857932177995
64.9737382566334
64.8009989381789
64.6921036654037
64.5063407288767
64.3225047208284
64.1989999927929
64.0494087711231
63.8555333008332
63.7224158187662
63.5530367065984
63.3571969380371
63.183767340492
63.0527702383037
62.9340330031515
62.7664378361588
62.5423576967477
62.4270782895519
62.257924376447
62.0544365976152
61.9050751853739
61.7624426115795
61.6007730819548
61.4118358728239
61.2281627108844
61.0993892513626
60.983998877146
60.8841382374433
60.709345922935
60.4907951281752
60.3115791703194
60.2036764354778
60.029547825692
59.8708809431381
59.7130765379013
59.557131589913
59.5060457688041
59.4739363392842
59.3082918468417
59.0843497704117
58.8506018640301
58.6115513591877
58.345454483513
58.1502898977442
57.9828532728535
57.8393540610528
57.7201759163537
57.6316227288169
57.4826104619048
57.2707166633867
57.0732632812137
56.9163816383646
56.7731340196279
56.6208614230218
56.4521043828371
56.3191248936843
56.1508051672952
56.0592616784473
55.9623100432999
55.8070947729407
55.5912482957119
55.3908025758957
55.2352197817516
55.0918284974421
55.0088289654659
54.9395065736197
54.6877602924816
54.4887442393994
54.4317327564444
54.3360176733224
54.1839081346061
54.1153919410132
54.0383230611892
53.856171991381
53.6512074394979
53.469165285722
53.197767110119
52.9656914117375
52.7917886212735
52.6865533016078
52.5724548773339
52.3724731167323
52.168121575574
51.9938333368108
51.8263240184067
51.7258320655038
51.5898197322414
51.3952129268696
51.2353906410641
51.1876422165884
51.1253723944423
50.9928662554573
50.8721481205523
50.7513828612059
50.6084692434797
50.4758501482245
50.3761002149148
50.359868462607
50.2003525066645
49.9963696006969
49.8289635306397
49.6819125130694
49.571294898824
49.4808434442749
49.3170627546754
49.1649170536728
49.057696576536
48.9500027255622
48.8658935881519
48.8484681323999
48.7812931909984
48.6154524758714
48.4388283368628
48.2747469721996
48.0575195934735
47.8574964008648
47.7365227915964
47.6906837956392
47.689903003062
47.6582318664737
47.5562235752885
47.472694201714
47.2925370473351
47.0679301783697
46.9280685930091
46.8279532023253
46.7413522439583
46.7263323658497
46.6946235333225
46.5911956174775
46.4590972876338
46.4865978773234
46.5197142508075
46.4627950603045
46.3234688415907
46.1801297712658
46.1058190488296
46.0912857867599
45.9770060828004
45.8444299957375
45.8145026804855
45.7899530970478
45.7465954790857
45.7857961913934
45.7759658957729
45.6856307793467
45.5907957071355
45.4722630660069
45.3208826297045
45.2104915007213
45.0989023075199
45.0395206259094
44.9780586470624
44.9680634354889
45.0076600689939
44.9532052469077
44.8692614551047
44.8073283425684
44.7495515110177
44.7983761807839
44.7755874510408
44.713987529565
44.7156987368403
44.6875536101536
44.6614792239481
44.7355440779612
44.7203688414954
44.5987043984724
44.4908183794605
44.4397898376108
44.41898645591
44.4518086463653
44.472826177627
44.4830268529611
44.4648033382879
44.4021341267277
44.3490543506298
44.358151378357
44.3369646820955
44.2679835210729
44.1882107469091
44.1232390820739
44.0980871768933
44.094464889342
44.1112558328803
44.1848459224925
44.1744573964676
44.1343468421898
44.1554621213724
44.2130691116811
44.1971624172136
44.2088426477494
44.2740014198081
44.2687531481901
44.1957956983345
44.1451593969301
44.108136932836
44.1235153524474
44.1222478909164
44.1083427659966
44.1161270944282
44.1407790294634
44.139010843386
44.1401462364015
44.1364517232345
44.1442390897835
44.1513407260806
44.1795680905419
44.2240313987206
44.2689958594948
44.2463135871093
44.206989104096
44.2021860842094
44.2349063542505
44.214949298184
44.1188029251123
44.0396820550669
44.0551043142599
44.0495065390062
44.0139539286317
44.0351558656206
44.0807420476349
44.1449242841949
44.1963409857572
44.168347744335
44.1673647819126
44.1556353798491
44.1313095151866
44.1336886718055
44.1054325514077
44.0595641898089
44.055004276493
44.0522384687838
44.0687715185267
44.0531267929605
44.0607991721563
44.1467030816704
44.1922160591467
44.1527467466167
44.1568250551938
44.1744101674231
44.1946902981593
44.2190058556742
44.2542432051482
44.2393264879674
44.2076215455455
44.2624561370885
44.2689562785743
44.2100664099636
44.2627050225332
44.2709381266557
44.2512988748149
44.2629975124623
44.2142648264951
44.187255843093
44.2184998240593
44.1789496171726
44.1633180546394
44.2030679911943
44.212363915974
44.1981061058386
44.2128541421869
44.2444265763703
44.3118279676366
44.3742507603008
44.386251896901
44.3668171304949
44.4022616365114
44.4250310993516
44.42033137997
44.4075326021138
44.4164183143013
44.4476074064649
44.481001098378
44.4988032651499
44.5577312108365
44.6439776501454
44.6645973290354
44.6191153633407
44.6067939025958
44.6422507441643
44.6590765993439
44.6749278731489
44.7502542470116
44.8073427556759
44.8173777998952
44.8311453352185
44.9103035331632
45.0075205254226
45.0511820034877
45.07862910094
45.1378889933471
45.169946160697
45.1763895088944
45.1689755597192
45.1885491595175
45.2355546312915
45.3090395283629
45.4043978417914
45.5140260815546
45.5681202892414
45.5949183726913
45.6647285079594
45.7727584046983
45.857084462142
45.9082799682701
45.9530082536886
46.0468000433636
46.1582546059168
46.2407298803214
46.3288406835494
46.3794912577136
46.4324220631121
46.5254633124124
46.6333988833038
46.7602981841177
46.8682838929518
46.9577342998769
47.0295844968548
47.1188915817077
47.2431114815689
47.3694735682646
47.4974454797551
47.6522534767502
47.7481650282228
47.8213184875307
47.9417897688308
48.0788854840979
48.2109323814864
48.3544340200871
48.4387728624725
48.5101395833495
48.6861917128384
48.8972902033201
49.0281462402969
49.1633192915979
49.2773396338763
49.358083806338
49.5208219932969
49.7304479090182
49.880078766803
49.9837479623211
50.1077287123195
50.2748977124359
50.4516108022423
50.631324119892
50.7840200303164
50.9613237043299
51.1591867276223
51.2752622859585
51.3513801536965
51.5187505985189
51.7263599011911
51.9181508733842
52.0971295606875
52.2895175397675
52.5003903869016
52.7033438466233
52.8468643784434
52.9825557855325
53.1636790197995
53.3721469222163
53.5738754374304
53.7622653719948
53.939722952166
54.1247448501952
54.3179849995647
54.5193447256158
54.7185737005482
54.9352392088875
55.1469995111294
55.3640928664518
55.5806445809872
55.7809535590129
55.9845306440925
56.1821791028065
56.3770117248604
56.6165562063008
56.8240546326715
56.948467284478
57.0930209541143
57.2912700084366
57.4621045745198
57.6489147915612
57.8799340198776
58.110667231734
58.3238165503834
58.5309999936561
58.7766008523105
59.0562601302666
59.2933687155767
59.5176852094957
59.7219386078485
59.9236834074274
60.1032963396031
60.2689280517421
60.4805945966985
60.7102809962756
60.8930715935931
61.0863764499818
61.3280616234318
61.579946976768
61.832315035413
62.0657458711737
62.2459729447863
62.4413920829093
62.6609779657903
62.8747476510904
63.1231100366644
63.3888645613579
63.6451193348424
63.9137125722333
64.1776594336341
64.3826070619365
64.5070398364933
64.6217300217632
64.805726481741
65.0385683807962
65.2321848050403
65.4197408122244
65.6173961113953
65.8344356444873
66.0752650152541
66.3273052979952
66.6227352372282
66.8559911689349
66.9590106122972
67.1071004216943
67.3346994394605
67.5758316360538
67.8309717541242
68.0760690293429
68.2615789164566
68.4763430736262
68.726371337032
68.9285617467153
69.1146537574621
69.2920642943764
69.489072884289
69.744116436536
69.9526066908229
70.1300180077702
70.3700222355416
70.6042308083657
70.7966144959777
71.0327349971614
71.2479608049025
71.4030626349818
71.5959255772843
71.8250339212395
72.0266123962896
72.2247024266667
72.4193734505749
72.5803115806356
72.7574448793027
72.9608650145181
73.1420734316993
73.3373090457369
73.5370348468173
73.6886222228618
73.8346266393938
74.0170987579438
74.2330552170171
74.4535478355796
74.651852482371
74.8493021306855
75.0341330093308
75.2081786486262
75.4010644138598
75.6441861099093
75.8283771045934
75.9233742243601
76.040580703875
76.2521425802241
76.4942785547832
76.6801491188364
76.848099735142
77.0245003112903
77.1711644353184
77.3459955918429
77.5347373180459
77.7100597371859
77.871942070436
78.0381806439907
78.227832670557
78.4135240431766
78.584909945026
78.7439310131936
78.8987326828548
79.0326918276081
79.1376768652862
79.2692551165284
79.4715555264929
79.6974773475143
79.8796094938207
80.0189654406293
80.1518975940547
80.3296105653227
80.5299850106915
80.6859509587067
80.7879846952565
80.9228709201139
81.0994622679831
81.2411039390133
81.363232442714
81.5110414103161
81.6397661491058
81.7844339245472
81.9549548275708
82.0746637255678
82.1931277469302
82.3492305470838
82.5138621716074
82.683069132697
82.8425131292012
82.982423116531
83.0968772994421
83.2137011309825
83.3639392913557
83.5319579867514
83.6649463162834
83.7789832324598
83.9260943558293
84.0600295132417
84.1538974302042
84.2509919753078
84.3704739471343
84.5191031946543
84.6505319918895
84.781261651195
84.9182054525014
85.0086473727111
85.1053245627339
85.2630687003655
85.4190525355764
85.5361031524002
85.6475768030646
85.7680218566136
85.9025131957276
86.0271430203431
86.1279008841426
86.2442967872932
86.3483920822689
86.4581462436886
86.601511240546
86.7189316719093
86.7776709627202
86.8640271865949
86.9853923517766
87.0725688817106
87.1609744557072
87.2905237404459
87.4206044000702
87.5097903473794
87.5935363272653
87.7140146145111
87.8494450843161
87.9493752978265
88.0291899852545
88.1046536014986
88.2048698992867
88.3646086178107
88.4868230556706
88.530953275125
88.5927750511898
88.7041987321689
88.797388407061
88.8731078916556
88.9728620744498
89.0870270803617
89.1677454661165
89.2787104960136
89.3843128656131
89.4210244041328
89.4953874821042
89.5532412820228
89.59524825768
89.7113674975313
89.817725938134
89.9091655112189
90.0320937902689
90.1241789090513
90.1530380671514
90.2277469524686
90.3489175111891
90.4353935104126
90.5169328881129
90.586874743128
90.6547475118903
90.7407758000769
90.8052434779093
90.8771012602122
90.9278801576075
90.9654647257738
91.0719116625732
91.1918038738343
91.2559770163102
91.3174020721473
91.3896696266467
91.456091744265
91.5201828790422
91.5940320052932
91.674287739926
91.7319140123196
91.7961974133626
91.8738020672429
91.9402601174156
92.0243232345028
92.1112066251022
92.1902754284694
92.2372141642712
92.2838835096383
92.3225713135932
92.3804141282844
92.4888591566173
92.5511700014054
92.6060608027777
92.6749538567878
92.6987588893272
92.7481937738906
92.8226943163201
92.898485094346
92.951054906244
92.9803456507275
93.0501919485896
93.11518181059
93.1574642176177
93.2027314395746
93.2717501521824
93.3267943288139
93.3681547670544
93.4272059135424
93.4988996829655
93.5635257204275
93.5874922596706
93.6300745123649
93.6799771994155
93.741373450485
93.8401713536073
93.9330783115802
93.9769387153879
94.0146247142813
94.036329542136
94.0851353367128
94.1674111822919
94.2033844566612
94.2129394595219
94.2690224029093
94.3319911968053
94.3951364400744
94.4398482995432
94.4653082228497
94.520535352878
94.5798362870491
94.6313084438975
94.6687146667545
94.6880915181546
94.7213076019509
94.7829310897305
94.8490488538359
94.8984477730976
94.9508992421623
95.0031158148727
95.0478517387083
95.0770782814394
95.1094317175979
95.1239008960525
95.1665275017035
95.2426342956321
95.2547341609844
95.2513522368979
95.3119006731053
95.3466850165615
95.361976680902
95.4175128076209
95.4727745245365
95.4877076018659
95.5049565807891
95.5425194153779
95.6232344711544
95.6932037560813
95.7054146280727
95.7314069310919
95.7856175302756
95.8074387397176
95.8337023297525
95.8837232650999
95.8857372053752
95.8838211755422
95.9286518268433
95.9615668586716
95.9819690990385
96.017238512169
96.0740996762861
96.1301271583263
96.1682877719948
96.2066024117163
96.2237165995065
96.2213717685755
96.2389091607033
96.259332672565
96.3003365276431
96.3344558501654
96.3482574465437
96.4064723761604
96.4424193659015
96.4286473282955
96.4669430313158
96.5427982866057
96.6071445579716
96.6204300579112
96.6073900466871
96.6124998013472
96.6559946803869
96.6930989985472
96.6976753754965
96.706738094192
96.7328068777775
96.7689769580176
96.8243095428171
96.8785709106866
96.9199175659058
96.9647036342175
96.9597451382527
96.9460385451362
96.9656945571942
96.9938728645158
97.0410806629157
97.0779379962155
97.0874529439834
97.1107106295149
97.167864681139
97.185760366429
97.1803702683722
97.2129412932063
97.2290014896082
97.2115836319724
97.2393626485748
97.2804303665985
97.3189183414126
97.3481838612981
97.360143775621
97.3573248762045
97.3292884349334
97.3781039256757
97.4123044873697
97.362632104331
97.3790918670537
97.4784831562028
97.5209938030326
97.5174049247144
97.5604318162525
97.5835014837298
97.5569378809434
97.5670887962972
97.5709627943046
97.5736163467207
97.618126511487
97.6365341675259
97.6431149387675
97.6690891973248
97.6727986481248
97.6872703744827
97.7329476341545
97.7494118156907
97.730357763213
97.7405943597865
97.7640888843979
97.794364022328
97.8361103409458
97.8492927149717
97.8289613372584
97.8315687402811
97.8647501665184
97.8995641783202
97.9059868178952
97.8984959910879
97.9110049284097
97.9210814149401
97.9182337308352
97.9519874636009
97.9781738825787
97.9523127846377
97.9676131433023
97.9850781298284
98.0159873878772
98.0743630875176
98.0941434027683
98.0929193073229
98.1051232946176
98.1119276889664
98.0900766361369
98.1364916175881
98.1765360129836
98.1593817734023
98.1446477307399
98.1401736077111
98.1680085326996
98.2004196245344
98.1970715642522
98.1862632098637
98.1981015269681
98.2341906353968
98.2642022957189
98.235562049734
98.2189271317337
98.2591047951864
98.2962747875687
98.2989187503792
98.283028850102
98.2866540672137
98.3150998462679
98.3087321853003
98.2770976742502
98.3076760382781
98.3466348889977
98.3527127275701
98.3440456236788
98.3316533850932
98.3696141292862
98.4323393147824
98.4350824443475
98.4095810476697
98.4308607298047
98.4439096138042
98.4537551262744
98.4570775832785
98.4687750546763
98.4882438991305
98.4812744738016
98.476945677818
98.4911682679516
98.4738860581122
98.4570850373873
98.4775350809548
98.4987487311499
98.5028150576049
98.5208001702462
98.5373346178628
98.5271239512932
98.5337116611585
98.5728533800596
98.5917539177196
98.5929490571226
98.6042190053257
98.6287548489786
98.6417906694329
98.6446539924567
98.6346746557077
98.6107110269684
98.6168613061805
98.6097855350825
98.5951390401132
98.6134381696456
98.6751672982644
98.693276669238
98.6661227543343
98.6734085106108
98.6877778475121
98.6703524907538
98.6473492513126
98.6695919914575
98.6883377678095
98.6801529221887
98.6702932666755
98.6875264897887
98.6878572398911
98.6983987813767
98.7048418070639
98.6919005345758
98.7132015144547
98.751046363657
98.7728209706286
98.7385433641323
98.7106345336003
98.7435331476551
98.774791939159
98.7778307678854
98.7945601511133
98.7853879653398
98.7536869406253
98.743234876347
98.7314775449622
98.7511687060649
98.7670142418289
98.7741407924097
98.7793168505056
98.7736401453843
98.804863761805
98.8062409496752
98.7899337644394
98.8210068714959
98.8426196833644
98.84008462743
98.8285335185339
98.8450637610403
98.8647173983482
98.8376411066047
98.8175420250345
98.8457275883327
98.875299821753
98.8677530907824
98.8525050564267
98.8140035479011
98.8094046317957
98.8045639236629
98.8096669834755
98.8621570383738
98.8723106403645
98.8573484616397
98.8518381294443
98.8765683146435
98.875032774913
98.8506867027956
98.8410081201023
98.8716176073949
98.8898525885202
98.8790057423845
98.9038645204366
98.9239075585567
98.9034520678095
98.8998401682324
98.9109491859621
98.922346603816
98.9213910708654
98.9281418659482
98.9574937624632
98.9503371892578
98.9610765705321
98.971732188287
98.931731462957
98.9712416909563
98.998314841633
98.9888326348649
99.0158621893547
99.0244579909072
99.0241002722454
99.0250644035745
98.9939683202557
98.9896058473135
99.0147696025671
99.0342899753286
99.0609475574758
99.0986147533532
99.0978689857139
99.086123619938
99.1519232670021
99.1771521608978
99.1108159796621
99.0513877175568
99.0735429877741
99.1194471472789
99.1323804453192
99.1311140979373
99.1379850965816
99.1254417044401
99.1038625619175
99.135373726781
99.1953228046547
99.2410967713162
99.2693243957785
99.228891477618
99.1831303945091
99.2043868503762
99.2475327798094
99.2493419561815
99.2350353047278
99.2466410826082
99.211175915761
99.1923019323335
99.2439512440169
99.241462250575
99.2445506569151
99.2991308293108
99.3214264044916
99.2451527393274
99.202168752703
99.2830008058303
99.3328449535166
99.3018725099762
99.2949251858363
99.3150999637932
99.3547061220793
99.3713141773425
99.3441757451742
99.3338061755084
99.3346843162246
99.3540273334757
99.3885953622288
99.373436620629
99.3627196375346
99.3728777704649
99.3106046445134
99.2693949072477
99.2990552887639
99.3313323187461
99.3710050539758
99.4066028577847
99.4093904792559
99.4266657900997
99.3935660468175
99.2856926374641
99.2805676466632
99.3614902300383
99.3076072348393
99.2723225534271
99.336677132546
99.3780634617903
99.3984062144467
99.4026590744699
99.3721923576968
99.3590934726906
99.3627388889255
99.3926794532565
99.4053576740251
99.4158891996355
99.3664079421867
99.3226401714927
99.3513459445393
99.3801077594742
99.3708253922572
99.3651798004812
99.3781025774887
99.3708437258642
99.3894470756879
99.4165713082008
99.4082826541693
99.3821521366706
99.3388854776815
99.2950398686587
99.369772811012
99.442307249687
99.4344556188492
99.3628952542813
99.3334050607622
99.3625683545861
99.3801884940472
99.3860112375109
99.3832126302923
99.4050893142881
99.3807263724166
99.3447449484308
99.3568704966944
99.3593622406963
99.3429216283756
99.338783703304
99.3291930777667
99.3205780890245
99.3159234647813
99.3471311109544
99.3751753756204
99.366924454855
99.3540057316027
99.3219391346866
99.3107811477163
99.3230309588949
99.3343477200048
99.3788245506129
99.3749303095957
99.3517735389769
99.363175470786
99.3005081387204
99.2787190630705
99.3119456011878
99.2726687574102
99.2793518031566
99.3299602714143
99.3219554922232
99.3335646791665
99.3610638992861
99.3159738077829
99.2697493908867
99.2636551805785
99.2312717234302
99.2226961204528
99.2110374892897
99.1679826613618
99.2132367327594
99.2171716058856
99.2158110063977
99.2335034320919
99.1957498984585
99.2192277366063
99.2117448895563
99.1404816403819
99.1307126380546
99.1979019259399
99.2528488846532
99.2457058324451
99.2016880482883
99.1977894296598
99.17280591946
99.1188553076758
99.0861797528223
99.1032330622823
99.147476182669
99.118163845819
99.0693733481605
99.104878355463
99.125646279461
99.0829782775459
99.0885842518994
99.1206576012258
99.1561373786165
99.1609033361441
99.1202662127327
99.1255322032664
99.1268881532127
99.1155753912461
99.1559138160225
99.1660521206815
99.1283461176293
99.0923692263853
99.0582078825503
99.03623346387
99.033957009824
99.0380649065344
99.0561423600568
99.0235951401437
98.9542855913962
98.9849403533219
99.0141017303967
98.9898327245435
98.9808995090845
98.9929365907257
99.0257396762698
99.0325502190701
99.0455998637454
99.0523107253228
99.0332410916549
99.0633604241985
99.0896877385489
99.0032517665152
98.9523075054893
98.9614241748876
98.9341004863322
98.954000358705
98.9948940713549
98.9169208368091
98.8342250661104
98.8193605050187
98.8639857852226
98.9154398060939
98.9449601392435
98.9451509160498
98.9436887288617
98.9087345180748
98.8701885439124
98.9047897161738
98.9404978399177
98.9205333844894
98.887054942268
98.8674319366272
98.8461441965309
98.8706420587318
98.8463314269782
98.8187987780169
98.8416592629651
98.8208370246369
98.7985360751016
98.7879164373301
98.7832028410465
98.7978703666226
98.7767317811705
98.7955355935627
98.8325743094066
98.8111150764974
98.7561618524002
98.7086723255107
98.7193595823607
98.7498652600727
98.7527810414078
98.7115175801348
98.6781998598553
98.701671915715
98.748266691119
98.7157134397773
98.6502951048389
98.6676256751192
98.6641520732443
98.622039102135
98.6039533312981
98.57864226411
98.5840108450652
98.6494692918806
98.6243961552242
98.5541757888585
98.5595279320413
98.5855013421117
98.5528789896289
98.5096050262225
98.5094004018617
98.5177660029774
98.5053389123295
98.4904022360144
98.4885240795094
98.5153655106379
98.5075302815518
98.4709006385404
98.4118114506926
98.3776603062991
98.3589368756548
98.3461157732139
98.3762287769135
98.3854156965946
98.367534941188
98.3678078632178
98.3692557343172
98.3795507714115
98.4039613262558
98.400726138668
98.3627003193477
98.3491769720093
98.3880331855924
98.3868576466697
98.3802176164997
98.4257311390615
98.4620588523946
98.4489811223845
98.458514118438
98.5277685067572
98.5740651553599
98.627760976537
98.6059844247905
98.4707692169493
98.4457576729727
98.5051849329792
98.4517759266372
98.4370917175211
98.5144214136402
98.4631409885689
98.3589592235724
98.3638133954591
98.3231118677916
98.2685714797906
98.1936074429319
98.1710540856306
98.1396339484524
98.0975175142851
98.0837982820359
98.0771602272138
98.0320834762667
97.996911779178
97.9903247622869
97.9396257467471
97.942345270868
97.9920702858038
97.9823370978275
97.9980660744573
97.9946403743682
98.0557125078125
98.0742965989741
98.0375992518492
97.976403458852
97.9908261794635
97.953895741104
97.9839828969868
97.9958442185766
97.9795126538255
97.9346467696915
97.9208905565984
97.9067001898573
97.9156882737472
97.8830979898634
97.9107870513195
97.844253819326
97.8706883418891
97.8273777102687
97.7715080307263
97.6993311428748
97.7322154701431
97.6722370388409
97.7406492478298
97.7519497617815
97.7595677733766
97.7818776879435
97.8168136901754
97.8072992198032
97.7687128550639
97.836021401993
97.8295945544526
97.7786748566024
97.7593021356652
97.8037839666369
97.732234811019
97.7366125115943
97.7352448746085
97.7542551431063
97.7992606323433
97.8177070216054
97.8490170575698
97.8507702964501
97.7905603796835
97.7534186559881
97.7395255623974
97.7355917748385
97.7336338201654
97.7836239153967
97.8049975850521
97.8479987561478
97.8528359154622
97.8290073489819
97.7918153064989
97.7754091098971
97.8000568553538
97.841015773613
97.8040692376833
97.790691986137
97.8126790092458
97.85061607958
97.9099406032953
97.9288412403063
97.9196972545551
97.9363977314819
97.981064652746
97.9956082906733
98.0579709373844
98.1350506880417
98.0791257443894
98.0398174510517
98.0485340548126
98.1049735796142
98.1314950304893
98.1335949220346
98.1213323196595
98.2201141993731
98.2550450830967
98.2692077036368
98.3048575487304
98.2264735155425
98.2204670150121
98.2360554871721
98.2312126608815
98.3073945151894
98.3797638156787
98.3504895759657
98.2344189599246
98.2798427345402
98.338917995452
98.2883239082793
98.2342189960243
98.3787277176904
98.4278487585082
98.3863338572987
98.4726194571524
98.5314433068246
98.4051819270498
98.363911205063
98.4168335636678
98.4163689237086
98.4177611272345
98.4838442794762
98.4505366559892
98.3781514293986
98.4006788638464
98.5142077832149
98.542700174043
98.5541375940674
98.5931763125959
98.5313401477394
98.4726789159812
98.5469495483301
98.6377119434224
98.6233211258019
98.5842632575223
98.5019542753643
98.5705028582363
98.6267231681312
98.519882136321
98.5092699426897
98.6035596472624
98.5460527758996
98.513212383603
98.7410763163798
98.7843410570425
98.828673563894
98.6950323606648
98.621522043185
98.8076710142329
98.8965327956467
98.8853244328057
98.7949059150263
98.7515919500295
98.8526213664278
98.8650621359125
98.830545735089
98.8799589059226
98.8802524776914
98.8049461763221
98.8737394000802
98.9423201704523
98.8645318276824
98.8136231906403
98.9012033918113
98.9280492099007
98.883999811938
98.9776780198644
99.0451526161043
99.0044516358809
98.9550762623916
98.8826338477811
99.0068342211794
98.9203020431764
98.7775000173834
98.8234301064311
98.8916789158102
99.1742462715857
99.2085941954246
98.9734795653995
98.9779509906039
99.14749752045
99.3116205930307
99.3558401230527
99.1935468042448
99.2758354070308
99.4546690488607
99.3569803885221
99.2628770298085
99.2571784051244
99.2985065856302
99.4643853129041
99.5430601822316
99.4553529495243
99.4259762902277
99.453187125766
99.3066040704485
99.190793079654
99.3569252984958
99.4117375782185
99.5015792224976
99.6844303037107
99.6094803786027
99.5697219500423
99.7635578001595
99.6698395163696
99.5808705078376
99.6126641179455
99.698701299289
99.6634885149776
99.6648168621291
99.9651874108826
100.195448867599
100.344991646608
100.408780423655
100.349445185655
100.241752743568
100.37767342461
100.699777869393
100.669401887779
100.296532450303
99.8152311210489
99.6006283885239
99.5771167972207
99.6326762348727
99.5037224882979
99.0748842167374
98.9081143000561
98.9398740517389
98.7770124726653
98.7382856664183
98.8836682847444
98.8288486186723
98.6326080004357
98.3197674588613
98.3439227312507
98.2989527262717
98.0752554063413
97.9905140921748
97.9227444854835
97.9072086587978
97.9512182807743
97.9766365962203
97.7995938262673
97.7124122048573
97.6830570538291
97.585297372499
97.5021067311372
97.4419145147574
97.2644300230791
97.1391782025372
97.1283712102745
97.1046282818967
97.0542253831972
97.0057349457843
96.9294137280978
96.9559693254206
96.9548589583062
96.8820371627507
96.8775700901253
96.9973009178024
96.9888872838492
96.8585341364566
96.8241895033213
96.8350640514395
96.853823243121
96.891634530884
96.9900556931136
97.0254835913306
96.9709464597422
96.9477557124497
96.8481804393065
96.9199017104527
97.0389815255616
96.9923333956402
96.9255617076797
96.889151475486
96.9495823011781
97.0316624892528
97.0402265186285
96.924499610253
96.9126947215782
97.0825778740638
97.0760714350671
97.074637731289
97.1276802388806
97.1503587314451
97.1145224245373
97.0510164452305
97.0298643284614
96.9623493490478
96.9346056015299
96.906707559586
96.8149477862426
96.8812946933385
97.0298219547274
97.0443236456199
97.0051949174686
96.9931821689904
97.0096157181258
97.1381806921574
97.2665309906679
97.1882656115349
97.1473640175515
97.2569853734007
97.3970322198893
97.287562443516
97.2425588400344
97.3947842980179
97.4230208530824
97.3834958430237
97.4058021721351
97.4022152363288
97.4878466468442
97.5485893674079
97.5667612054182
97.4886969587775
97.4042176181591
97.5314591383381
97.5065826645231
97.4759718496368
97.6108843150028
97.7072620014598
97.7015208694193
97.8362448960896
97.77392658073
97.7045202899402
97.8029871508962
97.92524423677
97.9766534341655
98.1480131718175
98.1629061289274
97.9876092937902
97.9930529020106
98.1494334207594
98.3123085539481
98.4164133250501
98.5402769571621
98.6404768150315
98.6654025150555
98.7344130383177
98.7438797209029
98.7491261739259
98.8244588626062
98.7491898448498
98.7256208236381
98.8836393881342
99.1735817605872
99.2831279411163
99.1936255269909
99.2479427472554
99.3422447147095
99.4903184978322
99.5524742187088
99.548023685081
99.3370309521631
99.3842342939919
99.4191879399408
99.4735045469466
99.6170456427986
99.6630074944711
99.619882146547
99.6121950879251
99.52410765228
99.5208266483403
99.3683929991204
99.2112575154356
99.2268360182638
99.2241502823509
99.2334790417844
99.3725046324096
99.354376619428
99.1954978548016
99.1049157225632
99.0246991643349
99.1272815822111
99.1558817759033
99.0173862497441
98.9326062252002
98.9981602323757
99.0621707839044
99.1784721474295
99.2445962006799
99.0660128259793
98.7646567112456
98.6716647514031
98.7241234047076
98.6070971677568
98.6245961631687
98.753159279398
98.8270579461228
98.6693902155633
98.6751364665984
98.9001949894936
98.987580685918
98.9231374684822
98.8709062602081
98.8362399924903
98.9251598741882
98.8926226369346
98.7673041316648
98.6597824133656
98.731758265136
98.947064793928
98.870753965555
98.7570225356017
99.003288871542
99.1334012677545
99.1123967480528
99.2750982140446
99.3664847040857
99.4885733746085
99.5625941856351
99.5607587583834
99.3930676926159
99.1975140178084
99.238148052717
99.3340418967821
99.1998244476826
99.0896170646997
99.0305396167463
99.0992843208425
99.1893213897195
99.1319825987274
99.0821311205507
99.1526261998767
98.9025962483914
98.6440400127471
98.865909943709
98.7633188794422
98.5465390444758
98.5919996947764
98.5111660579893
98.5024296556959
98.6096201539582
98.6611469263411
98.6208547751127
98.5070635890111
98.3689397646518
98.244832609001
98.2535869496385
98.2361247106567
98.2888048261422
98.3888096873697
98.4020913536063
98.3283575148545
98.2109742436407
98.141522779335
98.2478061222311
98.3760868250013
98.3535758312371
98.2081953676433
97.9245095330372
97.8218730864765
97.9236978638275
98.0246094557236
98.0809386210912
98.008720203585
97.9239985715555
97.8490111591023
97.8323351658212
97.7955643381676
97.7683575308192
97.8724107592464
97.9346945761725
97.9677002845907
98.0040898720973
98.0001679634533
97.9602971100289
97.894445617557
97.8593298211871
97.8644850458431
97.8950018126206
97.8525650381629
97.8308396949287
97.8814913606613
97.8618559554803
97.7270406813066
97.7139461735563
97.6937212950156
97.67827916791
97.6620646838302
97.660296450421
97.6511115657481
97.6272502932952
97.7325881158954
97.7907858192108
97.6886862023046
97.5694363349542
97.5282616386432
97.6592516834243
97.7518889983758
97.6877345487817
97.6088213354203
97.5545883249293
97.5188122378125
97.5340467431429
97.636955152695
97.6547671946324
97.6252951180689
97.5528066064266
97.5901567822739
97.5628505956639
97.53878140823
97.5371512964044
97.4941564806507
97.4137983260879
97.3912132047853
97.3869559429545
97.4685753516648
97.440494031225
97.3926610160257
97.3669309329538
97.3472703159128
97.4381112576795
97.4537605498126
97.3992709714904
97.3649604375482
97.3514379125068
97.4052527349428
97.4336005773051
97.3783699648477
97.3963911284564
97.3766490583924
97.367871965815
97.4022868184837
97.3853916004078
97.3482330058109
97.3768492908553
97.4321625417569
97.3335679251794
97.3272519732497
97.3037862135531
97.2249448043902
97.1477126685853
97.1345143963905
97.1537450045557
97.2083769531169
97.203575832916
97.139051452679
97.0975680105459
97.1460626156952
97.1867759214993
97.1610939115562
97.1969197519447
97.1943331449175
97.136700815288
97.0922183970931
97.1099453085041
97.126027464464
97.118913366263
97.1141509551624
97.1083267351654
97.0741140103395
97.0471299340639
97.0324862791456
97.0815836651277
96.97859115827
96.9256213703599
96.9518253108508
97.0116245620059
96.9826751499017
96.9366847799564
96.8898095389251
96.8763322452601
96.9155851000624
96.9174273507396
96.9393896071521
96.9451656116297
96.8790045828716
96.8669877451774
96.8730522115314
96.8673148412851
96.8229831742133
96.7576723052353
96.6464961823584
96.6857116452939
96.7694892344109
96.7377706093709
96.6979662875468
96.6527324165778
96.6636371321968
96.6631713862333
96.6088233892951
96.5691879905475
96.6336071488136
96.6749602645148
96.6476409660916
96.5890415414045
96.5685877918803
96.5344493623882
96.4835870484612
96.5402451789487
96.5472237984581
96.4621836962059
96.4219241711993
96.38136418186
96.4094670121395
96.4387963087228
96.4154182124002
96.3927540827173
96.4060764726638
96.3304703006865
96.2590406430673
96.2872349354382
96.2777117665964
96.1884194680829
96.1463961678167
96.1728036587864
96.1551532444276
96.0423839495206
96.0854451844039
96.0584485469435
96.0854952509914
96.0941472754447
96.0275555230207
96.0086866563672
95.9761882576347
95.9059048500019
95.8863005066259
95.9448312894426
95.892956201431
95.8130771475978
95.7164655580944
95.7612528455668
95.7599388832425
95.7641232350614
95.7523210380664
95.7210480617634
95.6745238064989
95.6281698561773
95.4425633800783
95.3439501510041
95.4400446537991
95.4934646725167
95.4878111588455
95.2931130622583
95.277959628679
95.3752638751017
95.2908818732518
95.2662405567869
95.1728598569507
95.0866231375739
94.9509873351607
94.9436654772063
94.985475610394
94.9184415934818
94.8924133043113
94.7837441910623
94.7183481145301
94.8265603002052
94.7572025159393
94.6418641779417
94.5590572907298
94.3767465741828
94.2857430450841
94.4515913751694
94.3014548763271
94.1942050371447
94.110462986154
94.0849934540122
94.0793686442633
93.9976056683579
93.8509304750474
93.8018983640136
93.7620061126066
93.5797026561623
93.4446651195671
93.5576787434467
93.5326892523325
93.4108395331931
93.2808066235606
93.0142954196213
92.803767350004
92.8938775436339
93.0025785501884
92.8874666970322
92.6397329764492
92.4948819498488
92.5095788398544
92.4060534633392
92.3065194169715
92.2101997074181
92.0679994684383
91.8832400257425
91.767656192821
91.7085742740859
91.5552085404296
91.4014583951961
91.1759413930014
90.8686376814401
90.7425048132715
90.8449870621126
90.7170241207173
90.479690590218
90.3966826800748
90.2254088506929
90.0444360401949
89.8204104966435
89.6111745443928
89.456641751283
89.259139915885
88.9893553547867
88.6942684770029
88.5219424031891
88.3475626339522
88.2464020757374
88.0656195474804
87.6840022010942
87.2056261720733
87.0094255511444
87.232311779725
86.9079932456603
86.5052945464476
86.0377458578875
85.9782698313085
86.0207950163768
85.7277328364588
85.3941725785967
85.0667323148529
84.6774729535236
84.3012245376773
83.9961067727357
83.7479006200607
83.5073100319202
83.077831774223
82.4339325216893
81.9973698056472
82.0942319145077
82.1903284317044
81.8704993238313
81.4330046010079
81.1309962091075
80.8563419453061
80.4960433180467
80.0829313026492
79.4767723976904
79.1519504001793
79.1416083574251
78.8483528375917
78.3832556524393
78.0088053015052
77.6814202428545
77.2004560229897
77.1068755368076
77.0357289742727
76.7601363287765
76.3698587840845
75.9619016592752
75.466971365664
74.9732712213105
74.8373121915753
74.7090119575869
74.4456592818783
74.1177911897317
73.7733892108035
73.4622109442897
73.0948176250855
72.5471273238643
71.7362535146354
70.8841344759704
70.7666916658141
71.8087806212923
72.1080927320363
71.8473058870057
71.2877864614466
70.6840887275934
70.3170646109167
70.0489549014515
70.3508655891086
70.5797607468342
70.4184691916187
70.1774942999872
69.9954051091818
69.8279733157388
69.6502824072401
69.4223634515903
69.0679708821791
68.7811065962833
68.2322532744099
68.4658130361994
69.6435034517258
70.1028576103653
70.1846194852718
70.2218287725246
70.2479070205073
70.1982570609413
69.9747402662351
70.05539329485
70.6050736514117
70.9400131924586
70.9762961133066
70.7834667082369
71.2088477332214
72.0106200771309
72.4759007092428
72.8156597232508
73.1064150077194
73.1375905109828
72.7127378985089
72.9555204025996
74.2156881969075
74.9451549186686
75.3916757557807
75.739239302729
76.0124128848339
76.2498220285697
76.4313954387792
76.7336573594923
77.1001998192596
77.4434618745025
77.9098079854405
78.300215933391
78.5849355667092
78.8554108838136
79.1984886933319
79.5057297430289
79.8542121111487
80.2205031967657
80.5086413260054
80.7587476222456
81.0176929760251
81.2529898572717
81.4862071888762
81.7854585328527
82.0924804453268
82.3212730815857
82.5559969766535
82.792763894358
83.0183888580446
83.2470470031261
83.4633142206221
83.6541295583637
83.8388584251685
84.0268948832296
84.2164835462385
84.4061496194509
84.6083758888742
84.7762612522187
84.9279501795713
85.078676892013
85.1289255765208
84.9526607427641
84.7752377361555
85.4033265436852
85.9746519491716
86.1881198256304
86.3033705229145
86.315846209328
86.1436410114738
85.9448932240288
86.3207253246472
86.7497564842513
86.9004744076149
86.920618811023
86.9071872353632
87.0876764471678
87.2497705818915
87.2670579465404
87.1374243913059
86.7347893138699
86.480477088929
86.4414464708138
87.1854285532954
88.0569301518982
88.103154476969
87.8704690413486
88.0033705187951
88.3038273865366
88.2787512932783
88.1565225628539
87.9937596724669
88.1977412918342
88.4213864649916
88.4588110434312
88.3845832657979
88.2056767505444
88.2972809911025
88.4599668000935
88.3271169349323
88.3279967139829
88.379897250996
88.1725857112681
88.5207874597063
89.2958561915027
89.5009356224687
89.3734333033505
89.2334199332183
88.9880027595297
88.8986077990499
89.2123141519197
89.3450940556541
89.487201123804
89.4886070091736
89.3652203756138
89.3245168048189
89.3637507194404
89.3066285289275
89.3870091446816
89.6475643268774
89.5236934492149
89.353578920404
89.24766861748
89.5683902779924
89.9900474588194
89.9309370220819
89.678389432161
89.7394171307568
89.9256510492312
90.0092702935413
90.0991514672257
90.0061290779045
89.9768174506059
90.0781638426112
90.0025894552792
89.9512486574357
89.786603495746
89.4686968560916
89.5309523254937
90.185277069114
90.6671489318218
90.7010095177398
90.5474607771156
90.5001454097071
90.5295977214116
90.449224511389
90.3114795037042
90.4214586731507
90.3388573373946
90.2631806812868
90.6528656460762
90.7716550951994
90.7518471280068
90.7138983281273
90.5403667021698
90.3425370366541
90.3803938559804
90.6039232972482
90.6178134091506
90.6675084053418
90.822763751699
90.8425316363128
90.8586718639639
90.8562592204516
90.8045005030855
90.7515123227077
90.8400597316691
90.9132019579316
90.9139716840721
90.8257805628832
90.686456981284
90.7883948348872
90.8756939305965
90.6337426999214
90.5753483017791
90.7132219264724
91.0399598449911
91.1446788044449
91.0970735215856
91.0995979423492
91.0830852212512
90.9720437950288
90.7736842375254
90.8201426123854
91.0657790902694
91.0907597967357
91.1133432854227
91.0947256672509
90.9670533035105
90.7464405621824
90.5972273704331
90.5348374208008
90.9239554700321
91.2430195564611
91.2934354836653
91.2930873504056
91.2115421263542
91.2008929440856
91.2146049014238
91.1488354959521
91.0184146376966
91.0139436678789
91.2295902306953
91.284377229764
91.2862006077748
91.2858092850394
91.2723892731441
91.2618197233303
91.2639933035374
91.2964345647338
91.3171444379242
91.2531040935272
91.0636667097911
90.9925051216827
91.3806283409826
91.4995657964119
91.4445811243206
91.4244036011728
91.4188492409684
91.3321898992797
91.2394844422654
91.3362631056381
91.445888420583
91.4643325978827
91.459445356554
91.3928264827986
91.2729027264677
91.2649772797112
91.4521114849949
91.4702228593487
91.3525211164001
91.1093737421508
91.1594855015278
91.3749127234351
91.4124589608194
91.5476575381354
91.563679313015
91.5278301597706
91.4978311847741
91.4668241987073
91.4437071024605
91.4462310345378
91.4417726507113
91.4731213190785
91.5038928611369
91.5041182865819
91.4189411947215
91.3404131829576
91.4835778357859
91.574727531408
91.5662230470335
91.5320937272666
91.4420551088452
91.3487856453857
91.413910792283
91.5157369530884
91.5079831140622
91.3773433619413
91.3344692844466
91.5747731018954
91.700955273904
91.6595814800908
91.6406205605186
91.6178419596705
91.5710790718489
91.4551412065523
91.4082764657641
91.5943843504889
91.6906476198116
91.7127756006065
91.7076497130008
91.6859211337102
91.6667290612563
91.6731448994828
91.6605242431901
91.6468705131045
91.6479228767198
91.6688010829427
91.6384852641783
91.5699303349769
91.5358194083165
91.6435170326754
91.7621855069575
91.7669372853883
91.7612302617371
91.7212538419103
91.6627034189469
91.6976467784141
91.7461948622516
91.754104739129
91.7202177837883
91.6273733450941
91.5510431822826
91.6526371227931
91.7036012142852
91.7925395128711
91.8342608426697
91.8008188731479
91.8054934249181
91.7912013246398
91.7674217812518
91.7713654092825
91.8004449720132
91.8052220773442
91.8138001825355
91.8247714087231
91.8137445874641
91.8114949817284
91.851621539319
91.8736424289376
91.8704609960568
91.860675634731
91.838791117246
91.8515885142687
91.8620004245521
91.8053174280209
91.7025360308724
91.6685612730478
91.7260631306158
91.804237024876
91.8443129127789
91.8656105339139
91.8975286910104
91.8904683135166
91.8981304461297
91.8990559872099
91.8988334161503
91.8950128965797
91.9137862748915
91.9199199054054
91.9070919405773
91.9094227614792
91.9104412421672
91.9017392703037
91.910521451781
91.9119451344872
91.9190003703944
91.9105277714082
91.8838405441619
91.8471549541411
91.877071459601
91.9253104313313
91.9419587881386
91.9530830749701
91.9157608133767
91.8893908988119
91.8861747426123
91.9306442930138
91.9642905016901
91.9552510621766
91.952767349091
91.9530250255225
91.9644797541102
91.9696007245937
91.9610663020771
91.9534220884073
91.9668248782329
91.9787056817621
91.9683503662738
91.9578661712357
91.9495515082776
91.9380509048746
91.9404013504004
91.9459145300039
91.9489479910649
91.9516518447591
91.9523145812243
91.9477094857322
91.9474826396929
91.958656945757
91.9569812021477
91.9373613649336
91.9211538824864
91.9193572606581
91.9321168657863
91.9328519479764
91.9171831574363
91.9073511855303
91.8989685708985
91.898575722937
91.8910335049055
91.8675943980895
91.8627698830024
91.8663802365483
91.8584648896946
91.8512276066285
91.8427424760418
91.8378773417633
91.8328926688063
91.811230898354
91.7909358342058
91.7816644913892
91.768390771941
91.7728261361607
91.7674608714784
91.740663321357
91.7126058805614
91.6948719697031
91.6831136669323
91.6662487590175
91.6557868006098
91.6299097752682
91.5923540108936
91.5795042778237
91.5617422206898
91.5206986776009
91.5004585031452
91.4913102419602
91.4787793045836
91.4497742151082
91.4112173551799
91.3733452375372
91.3423917979172
91.300801760076
91.2422397722695
91.2019233351537
91.1706742931575
91.1061148832244
91.0316795641379
90.9736447517536
90.9194218023561
90.8462115374946
90.7731210611135
90.6953766931359
90.6090462827911
90.5414197063544
90.4755609460057
90.3877051706202
90.2867929373225
90.1844826897581
90.0876081428495
89.9795052686173
89.8629969427736
89.7581505855302
89.6556659265264
89.5458267227919
89.4274531883801
89.3082801011935
89.1890964390099
89.0572325695233
88.9186785976952
88.7826365742228
88.6413498148603
88.5033809651375
88.3754151243811
88.2344163715541
88.0836536552744
87.9366299753771
87.794266624165
87.6448116435932
87.4873726843116
87.3381226138624
87.1804244835985
87.010232047268
86.866268936412
86.7398636633808
86.594472099733
86.4329796960087
86.2764249724116
86.1220662469448
85.9670372089464
85.8029609160222
85.6385801709764
85.4841036540716
85.3336189316357
85.1792446821545
85.0327032054992
84.8835549878859
84.7296942644749
84.5718149581038
84.4032094198386
84.2474337824293
84.1047117272489
83.9515532720231
83.7996969396039
83.6442901652729
83.4766439713436
83.3171631589822
83.1677364659555
83.0208272810174
82.8767522890618
82.7234065784006
82.5620013003382
82.4014772924032
82.2449302158979
82.0947649515617
81.9360395021913
81.7724395322928
81.6167227065146
81.4646798085922
81.3179605731881
81.153808682556
80.9798267662283
80.81916381391
80.6597181353078
80.5007837300627
80.3470852925104
80.1898261423303
80.0313413469577
79.8704273001892
79.7060577818766
79.5436242086383
79.3854351786373
79.225411100472
79.0679149276391
78.9162972968463
78.7517598123815
78.5767808510376
78.4193796003667
78.2700899135709
78.1109024317413
77.9470620811854
77.7947684404028
77.6501533753024
77.4999437994568
77.3511016777503
77.2067973300142
77.0432296087164
76.8703067368867
76.7136894185053
76.566490040519
76.4258781166041
76.2719742318564
76.1145311971406
75.9693012384814
75.8136538974155
75.6516185867471
75.5072672130772
75.3586876109227
75.201045993672
75.050412221412
74.8957818832695
74.7420745426366
74.5912633200194
74.4420907233829
74.2764479777912
74.1135326920638
73.9654256994747
73.8174721441932
73.6681050397519
73.5161557824466
73.3608912658356
73.209248633645
73.066114951232
72.9105513795679
72.744522795972
72.5889303538912
72.452112808698
72.3064887612597
72.1382071296023
71.9736311510314
71.8207868660429
71.6676015824315
71.5056697422433
71.3510776913357
71.1994368109499
71.0383649628016
70.8879119360672
70.7333811453335
70.57269939202
70.4150576439547
70.2486918601916
70.0940620099058
69.9366463568995
69.7596715477827
69.5803576028889
69.4041097002557
69.23816767394
69.0724613419732
68.8945275200543
68.7023834075717
68.5097663389739
68.3259163637777
68.1311991609877
67.9261908485658
67.7221502951274
67.5180472388974
67.3137671396606
67.0959728863085
66.8672238766813
66.6567785434789
66.4558193444097
66.2366473854078
66.0058623328338
65.7809146658563
65.550804002449
65.3143376855906
65.0723395387006
64.8309486980893
64.5981347331004
64.3599026595918
64.1155169749518
63.8759798218378
63.6478581327452
63.4113040181522
63.1625629230981
62.9177916270865
62.6807414113256
62.4455391422205
62.2030843579768
61.9651353125887
61.7310866067433
61.4917558795545
61.250050751412
61.014109456379
60.7833036355003
60.549669763488
60.3157589732934
60.0879674573741
59.8601028877375
59.6416563621032
59.4348878171715
59.2191482631274
58.9966544289998
58.7856150647182
58.5862809844814
58.3895809444005
58.1888988521438
57.9986086386526
57.8131382086646
57.6159365215941
57.423200892455
57.2476370595204
57.0755501406971
56.9105681549097
56.7587990325717
56.5946847814596
56.4330838149363
56.2787471726003
56.1170686452585
55.9677444516192
55.8264727345541
55.6789479219061
55.5512572282094
55.4314364791433
55.2873239630125
55.1459247020761
55.0164973112576
54.899639607941
54.7881270057434
54.658688262257
54.532686783994
54.4210894818561
54.3141581447875
54.1966797154855
54.0640359716091
53.9451145932569
53.8532972539679
53.757990558701
53.6483824658088
53.5484513280098
53.4629926698715
53.369894965905
53.2651062631155
53.1617284792574
53.0739376698248
52.9962267959833
52.9142617463393
52.8293034586396
52.7441984683016
52.6601421711198
52.5791228754324
52.4869843676258
52.3880273815365
52.305323091188
52.2344206428206
52.1547407180411
52.0614580095523
51.9751395197758
51.8995292510669
51.8260003741257
51.7527707187679
51.6828364260911
51.6003754615507
51.511908547429
51.4444858868486
51.3821109996157
51.3191496864836
51.2514451629973
51.174425979898
51.0918580474804
51.0035513018204
50.9259717424361
50.8584729361709
50.7955007577606
50.7279235309654
50.6542882732687
50.5865009470167
50.5183252265409
50.4496335377291
50.3808427030054
50.3033764188796
50.2173284195163
50.1373446629311
50.0719673738915
50.002192969742
49.9306595649053
49.8611889279171
49.7778956436225
49.6901388295277
49.6095908626256
49.5345091426125
49.4641938721943
49.3891628385064
49.311671874883
49.2546055787408
49.1881095079896
49.0999269182924
49.0244539154267
48.9408840477131
48.8506925096488
48.766622701932
48.6735821211745
48.5800591889195
48.5047935200676
48.4454303209197
48.3655989133214
48.2614217781791
48.162117982518
48.0728226884361
47.9880590053646
47.9030291064011
47.7999725817933
47.6862501664468
47.6002503322456
47.5204280117389
47.407268299153
47.2994966176774
47.221131813406
47.1321926905613
47.0143628296309
46.9038828290815
46.7987955019656
46.6703256414742
46.5629379336139
46.4572971542228
46.3319710598926
46.2252414669172
46.1222603898577
46.0082321825019
45.8807876487305
45.7524572624196
45.636132080132
45.5228144677467
45.39219277266
45.2394340831757
45.1076902186146
44.9943569053173
44.8528047304351
44.6986749100521
44.5655761242681
44.4296531169972
44.2837359029407
44.136743313246
43.9937776006474
43.872904227388
43.7348844546999
43.5686488243351
43.414679828776
43.2696016508476
43.1375270290166
42.9947872717452
42.8447594189191
42.6970422012263
42.5135421861716
42.3503949148867
42.208059121223
42.0511370515669
41.8907671611115
41.7339233472103
41.5936072587055
41.4405661008479
41.2817499642837
41.1371639557764
40.9792957610227
40.8222399214786
40.6782320918321
40.523910978127
40.3663499484085
40.2226798518348
40.0801707518895
39.925413066801
39.7713856583721
39.6401684896413
39.5145979910626
39.3672327021164
39.2289155599061
39.1132628019639
38.9889942497963
38.8571226404377
38.7074035738864
38.5496348914422
38.4265349362415
38.3181475192319
38.2136339603388
38.1073094464875
37.9874363755976
37.8856232643013
37.7763763691251
37.6699394704952
37.5980531235727
37.4982982205225
37.3881245690046
37.3058850025502
37.2165435173946
37.1535662038154
37.0928744489682
36.9931459207361
36.9044398310463
36.8460276553291
36.7975585228959
36.7373588804033
36.6823408766198
36.6438063579335
36.6021348642889
36.551998973751
36.520279528912
36.4917682939029
36.4356453372116
36.3870550606549
36.3712233079036
36.3723315341737
36.3661717617324
36.3723428050602
36.3802030804864
36.3690717324818
36.3849613075224
36.4147878180794
36.4220330068466
36.4712074483143
36.520824071092
36.5512761387353
36.6468044495386
36.7593479150236
36.8287225186072
36.9140912383447
37.0313962061665
37.1556510839004
37.2741494356767
37.4414806048839
37.653814859478
37.8698909065881
38.0597495198538
38.26606667262
38.5328988398149
38.8102549696392
39.0568744326886
39.3273587520354
39.6483368820512
39.966663625156
40.3208294523486
40.6771911387379
40.9973852848587
41.3179341079757
41.6445067678984
41.975092963775
42.2848980320436
42.5832272240919
42.8984550932051
43.2120979834746
43.4737415898337
43.7037645329795
43.9213320162891
44.1450697861115
44.3580845383051
44.5725903009037
44.7566470529838
44.8739592618163
45.0010628050121
45.1035102027832
45.1825030508
45.2313675044965
45.2585878366864
45.2976655470009
45.3103482346014
45.3224569974674
45.327849331191
45.3406438580158
45.2932322874446
45.2024519701342
45.1295925142189
45.0533045354905
44.9395915609751
44.8235722644428
44.6899060457554
44.5362424721595
44.4207789091359
44.303434745558
44.1711996542852
44.0638889058692
43.9203582576234
43.7299180489062
43.5245995989793
43.3486497411324
43.1335944385525
42.9251094477491
42.7829642388188
42.6246906518732
42.4194529507965
42.2069903745773
41.9921177834604
41.8238595254696
41.6778058319435
41.4460911513164
41.1970077685059
41.0204376616338
40.8323390635631
40.6233622086576
40.4220729877253
40.2159364606596
39.9771335062853
39.7196831074883
39.4981005656257
39.261564258727
39.0241078646319
38.8473451309258
38.6651103653152
38.4653418500742
38.2311755119861
38.0383521404227
37.9111258577695
37.7064475481889
37.4210825992417
37.2186496858471
37.0356432391911
36.7849460845432
36.489884638321
36.2847266263938
36.1557344976189
35.9649059047096
35.7536490026916
35.5556457756461
35.4133430260836
35.2611993369723
35.0375599041994
34.8580040808589
34.690365475701
34.4850526636506
34.3325543663477
34.1626542355234
33.9526754507645
33.7765945558012
33.6534646352028
33.5454358990936
33.4013500045647
33.2507197137073
33.1868259624936
33.1515651565656
33.0189146855655
32.8638528359748
32.7316956896402
32.6264348431513
32.4711196211579
32.3854245109448
32.4158624484046
32.392051608819
32.2376526785913
32.1151128719922
32.0098383872033
31.8446946934549
31.8232109506382
31.8907431589748
31.8637680777184
31.7367995983235
31.7048514222009
31.7871611416921
31.7007316257169
31.5502638092628
31.4818142964481
31.4848484465015
31.4868748613822
31.5165677974123
31.4794856918246
31.4309666344038
31.4334401545896
31.3799759577872
31.1993268067029
31.1063728956974
31.2278569378845
31.3424486855825
31.270078053893
31.088123750434
30.9678425798506
31.0439814396695
31.1702826457375
31.1967218851297
31.0928783180974
31.1979303287815
31.2925438601749
31.2497292385625
31.151702609722
31.1396875913064
31.1058634472827
31.0287505639475
31.0030142727217
31.0730282681336
31.0645504267158
30.9766037268222
30.8700559386568
30.9193005986462
31.0356016759717
31.0897301757319
31.0045355394067
30.9195756677455
30.8967718560878
30.8648623705472
30.9457563411532
31.0484443035044
30.9703442069901
30.9642151001094
31.105956494293
31.0757206797731
30.9006408274831
30.85431974221
30.8298119657244
30.8793681322045
30.8676880178612
30.8745356755724
30.9505243865958
30.9577944683544
30.9723935919732
31.106551922509
31.205907654523
31.1834191122896
31.0009250893849
31.0212176612699
31.111008838962
31.1274348300364
30.9418888910707
30.6439303833828
30.6310574828
31.0387002490764
31.187229641835
31.0899405244776
30.7051685779214
30.682773161967
30.8056644083348
30.4620129233788
29.2685612149056
29.9401378920975
31.6107852436695
31.2496359742144
30.7461106936675
30.8070440270148
30.8729749650524
30.8255496246272
30.7358092664027
30.9671186333549
31.3109229986258
31.4803662511929
31.3730037273386
31.4877743133
31.2844645388029
30.9769320020361
30.7523304621968
30.6426656762871
30.6210091635559
30.714672130727
30.5797101478755
