3596
4000.36533379555
650.420452594757
1
128
2
99.5642725579213
99.5835761752984
99.5193841769776
99.5199622055397
99.5784887409473
99.5004035895868
99.4475413496083
99.5056004820131
99.5220123074832
99.5579585654982
99.5431152010323
99.5003019131521
99.5167111044149
99.4808365724448
99.4908430756471
99.5373028182681
99.5301627458735
99.5267028723958
99.4983169710998
99.5171310726653
99.5949062119108
99.590673493612
99.5326321397187
99.4902749760177
99.4567839200625
99.4439687870617
99.4869629125205
99.4574280415263
99.454863305206
99.5300935419161
99.5773738438661
99.5528526206371
99.4941134212524
99.4593998116404
99.5361340601283
99.5370340266748
99.4441027180898
99.3791628458126
99.416348375342
99.4592730081152
99.4455162879611
99.4435833914938
99.4195290424389
99.4441961589067
99.509937760173
99.6085983118345
99.5858675460798
99.4899537579973
99.4236813995533
99.5101396463509
99.5652618269044
99.5552606328964
99.5383472276046
99.485024798495
99.5383967268324
99.5475783167263
99.5230424922683
99.5711293033069
99.5290610211396
99.4599920655924
99.4304725949014
99.4088821549474
99.4464505709854
99.5828341410325
99.5923117515954
99.5004821326353
99.4369487277256
99.4843719954101
99.5261926571049
99.5027164093293
99.4287227479242
99.4304984698277
99.401032191864
99.4155607259263
99.5105465828843
99.6141425458888
99.6266622671473
99.5674983499258
99.5097462400087
99.4874952463118
99.5452554089721
99.5665441423236
99.5361773709203
99.5258433499651
99.4816146746887
99.4538222524927
99.4020815974078
99.3606875975143
99.3908346515064
99.4475616479822
99.5056661052958
99.537010427018
99.5116926284614
99.559321436686
99.5216205117702
99.4937141671038
99.5278552397146
99.6078134143904
99.6388883733766
99.5996353764782
99.6333240409151
99.6578598974044
99.5688666391766
99.5312060907296
99.6073623072234
99.6692518217916
99.5517897875249
99.428165641375
99.4363520832003
99.4708683145756
99.5042394114713
99.538498655893
99.604806157375
99.607904019043
99.51760089359
99.4798647973178
99.469974119607
99.5617218414574
99.7219358583056
99.6654268382278
99.5513217289513
99.4437297663128
99.4083587812492
99.508617996184
99.6549474843244
99.660599418586
99.5483814457111
99.443917878635
99.4298276956157
99.4699903178497
99.6198777675387
99.6883888619198
99.5200197295383
99.4545330472614
99.5891085089118
99.7161025426935
99.6597464002567
99.46814853674
99.430890088535
99.490873147518
99.6068203211289
99.6413752431904
99.5369550765459
99.5118324916123
99.5321449752965
99.5252131110904
99.4603581187654
99.4125717413172
99.4380940534781
99.5422296277957
99.592896945025
99.6452413747332
99.7824938369634
99.8342572036223
99.720528087188
99.6113239917712
99.4519222404948
99.292296735723
99.1995995657104
99.2547427065426
99.3808577205504
99.4701029391147
99.4692187942704
99.5505773924639
99.6320498824903
99.5243309771575
99.4865028749078
99.627780739326
99.6657628539054
99.6128797886115
99.5857842190826
99.5345630358812
99.4859469400796
99.5064761920076
99.3983224223475
99.29325254399
99.425878763192
99.4471147342727
99.3118993448565
99.3057985247948
99.3077707774093
99.3989146989905
99.4655293057882
99.39463001535
99.3546987876277
99.4172732347906
99.4908632954008
99.6538484804039
99.7106904218283
99.5557967234319
99.4560199031539
99.4194116431593
99.4533803841554
99.6157240680226
99.6055316081928
99.3311451983518
99.2819583137354
99.3095220839805
99.2078918878304
99.2393817334967
99.3357855238638
99.3831975328861
99.4833103896121
99.572404658313
99.4884162789268
99.3181010242973
99.3157379761229
99.4083157489722
99.5702648387577
99.6512565254438
99.4916155739689
99.2410793288043
99.2316909622155
99.3383923166868
99.4165243057609
99.3756339965021
99.2351629734858
99.1289315244838
99.1887186840523
99.3187315106482
99.311115487284
99.2608665105342
99.2368466919971
99.2396153465417
99.2733673543377
99.2759453222415
99.3079864516172
99.33173885654
99.2753253926438
99.20685143378
99.2108934785956
99.3005123901237
99.3174505301933
99.2604381073232
99.1735175347459
99.209847952698
99.2103585954019
99.1570073218349
99.1333366361548
99.189513722873
99.1987714357568
99.2268371903881
99.2995004283391
99.3673239407182
99.342101712469
99.1905759296685
99.1116122101908
99.262417439802
99.2615144845598
99.1148929453202
99.0487327077484
99.0710867243821
99.1060463887301
99.2588200962489
99.3149397218889
99.184774328915
99.1546835318793
99.2106563291177
99.0884580429917
99.0316625492244
99.1877137564614
99.3669068473741
99.4382158871079
99.356038134065
99.3075316548662
99.2881616573766
99.2506077380677
99.1880950262595
99.1470588342075
99.3072279154444
99.5247861416788
99.3437784182097
98.8698133904149
98.8747441941777
98.928846805188
98.8030686656711
98.8246703556091
98.9810197660236
99.067491452539
99.1492607901901
99.284189199923
99.1390316544665
98.8656655967643
98.9843951276507
99.0057969709127
98.6843948860755
98.5845930112587
98.7587455749102
98.8347819446481
98.753794849252
98.6608732689412
98.6976241666344
98.7177559805856
98.7086346682219
98.741399785641
98.6733884691918
98.4812186370497
98.4145137760942
98.4574964469358
98.4467215585503
98.3232289629088
98.2794924086702
98.3162132965384
98.3568832375397
98.4596850147909
98.5163631540724
98.3474816894343
98.1651739251877
98.1617270322128
98.1298561604146
98.0229297356076
97.9315222934266
97.9224170059913
97.8851188207364
97.8547655508819
97.8516769223348
97.7913171913493
97.6495957342788
97.5645575673522
97.487489259316
97.3791041656761
97.3492120480982
97.3603865290929
97.3249515698532
97.2544555399773
97.1906980147301
97.1816819897298
97.1961861152834
97.0718403190498
96.9296605597266
96.9169380475882
96.793476043372
96.4752588067311
96.2426926856751
96.0924339007901
96.0248602940614
95.9563108981527
95.8254596784275
95.6824676302095
95.6133866243045
95.5321830239686
95.3137362239497
95.2262982697333
95.336059271499
95.4087028718855
95.3326344085839
94.9151936506528
94.4995877639377
94.4108865181889
94.4459327214557
94.2544863234871
93.9750686646714
93.7607774761696
93.4631748618909
93.211071141445
93.0489184107174
92.8393095471193
92.6829584377021
92.5168552845036
92.2612896871821
92.0971895712386
91.8994386453513
91.6534000162177
91.4909894572225
91.423207991727
91.3143929162755
91.0607002505439
90.702645936118
90.4661323322421
90.4425162702483
90.3953671905712
90.2312639790831
90.0335656482751
89.7368279772286
89.5569392677961
89.3963542129828
89.0065283579931
88.7325247614152
88.641230971679
88.5563439387526
88.2870628974931
87.9976518885704
87.8860594706173
87.6740585973038
87.447364595486
87.2845405114729
87.071548559129
86.8517378318832
86.7485295074796
86.6040023427391
86.3798865036846
86.1906282628401
86.0431938448809
85.9744484067107
85.7937863009745
85.4718150036589
85.2394745256591
85.1986530860868
85.0950521483323
84.9697599820842
84.892625506995
84.7219816085835
84.5369308081761
84.315448156945
84.1562694735091
83.9674599874369
83.7402740277119
83.5798779917704
83.5086401300105
83.3302845817665
83.0742655371698
82.929807014305
82.7991285600615
82.6279872820971
82.5389428019136
82.4028432724258
82.2191974672809
82.1367678767251
82.0654265104258
81.87985191837
81.7774323231148
81.7103231977835
81.611989296263
81.4373681886746
81.137685960606
80.9510861115571
80.8624167684901
80.740336773245
80.6591781241309
80.4794922796787
80.2566516708138
79.9901402017463
79.8522716994104
79.8201714488888
79.7178570884021
79.567533779324
79.4477774411598
79.3229259352763
79.0900819253142
78.9692783771554
78.8217622999547
78.4964876245376
78.362069047627
78.3373632796013
78.2241700379242
78.0730323019988
77.9185809587816
77.8211726500131
77.6951235184551
77.4956654196196
77.3402011080589
77.1203816671975
76.9766115315803
76.8118039834887
76.6717786803859
76.5447860792626
76.4165479981067
76.2330849473425
76.0387687775951
75.9260960838296
75.7462091880925
75.3830884640525
75.0791461393725
74.9807699175581
75.0953737169255
75.0872640628688
74.9125867274141
74.8632557334022
74.752201583166
74.5443984534049
74.3464393398842
74.1025221721548
73.9319264853674
73.7592741973085
73.552798159204
73.405748911538
73.2725412879871
73.2035932669154
73.0888788535026
72.8759423657562
72.7170804595687
72.5681682276055
72.4066943385608
72.1393494661312
71.964763034857
71.9114877410184
71.8189176265574
71.5816489374614
71.3020343815651
71.161082774658
71.1294682682797
70.9767642456798
70.7660188258321
70.6206865151055
70.4109818201175
70.1382601287144
69.9747637011326
69.7953889285453
69.6152178689576
69.4845959963763
69.404327575271
69.2930906222375
69.1670863644239
68.9708078972221
68.7791603459771
68.6621645981948
68.5587528620922
68.4014260297093
68.1762454120971
67.9446303567502
67.807891357793
67.6774503944997
67.5526695782789
67.4013965564557
67.2170021295014
67.0464139625359
66.9074863408825
66.7736127587358
66.6487635972679
66.424389113595
66.238518737188
66.0994679520305
65.9469590860663
65.772320755121
65.6349329758026
65.4169699220319
65.2614045879828
65.1807752023462
65.0373538216486
64.9091371925328
64.8128406429039
64.5750829809922
64.3525006778598
64.1952420127127
64.0002221873196
63.8009528913494
63.6712995848081
63.5647397360711
63.4685942086891
63.2645944890103
63.048205391382
62.8110301868706
62.6886388355972
62.646676953822
62.4783713779821
62.2555872245807
62.1374007499964
62.0224240729155
61.8888391709579
61.7107624448735
61.5114353400429
61.3066664304113
61.2024386885109
61.0923441451939
60.9057244817809
60.786917481043
60.6472185791008
60.4497917646035
60.3097390099569
60.1403261007537
59.9670447537562
59.745253588933
59.6240125905281
59.64953673092
59.6379147187399
59.5001270013034
59.2709531428007
58.9800145245407
58.7806224441672
58.5852927975701
58.3460856153541
58.1509192446686
58.0308488600734
57.8425591727333
57.6607892243126
57.559541975005
57.5255591877183
57.3844856614839
57.1493837325042
56.9601894439501
56.831446406742
56.6774565116557
56.5683000940856
56.4643603565574
56.3007278665289
56.1350814160634
55.9683317291895
55.7645943355866
55.6360094260262
55.5279178757031
55.361653133352
55.1654937710193
55.0138272789847
54.9077069127577
54.8091148087563
54.6576160795139
54.565573597171
54.4703271126596
54.3528808007087
54.2668823512039
54.1640932860792
53.9856182198508
53.8462374308131
53.7051394606668
53.4294368634871
53.129797911938
53.000985261065
52.9089418818151
52.7699095446019
52.5939079139107
52.4041154011293
52.1839933614393
52.0233145007349
51.8884015177082
51.7969150094026
51.7007548992672
51.5521986519456
51.4266580359542
51.310423755051
51.1169585393815
51.0304990931258
51.0084162594371
50.8882679610663
50.7514440257042
50.7005839947965
50.6428262640212
50.5282228114779
50.3143501527652
50.0745619950015
49.9009042348412
49.8197530371136
49.757412443536
49.6327945906741
49.4205719204021
49.2957429679807
49.2401832559247
49.1951829117429
49.1606687144113
49.1077117701401
48.9671704263264
48.7734397651493
48.5750163031259
48.4380541606872
48.3002551544889
48.1353340135008
48.0458371520801
48.0186150289143
47.947465180425
47.8609556489469
47.7901789158874
47.7066744952225
47.506811117711
47.3634294114337
47.3032320480796
47.1971639876387
47.042733560614
47.010931286049
47.0081648720699
46.9308604026523
46.8497493952272
46.8559858915834
46.841902402596
46.7483659862379
46.64046843537
46.6147558241397
46.5384514783649
46.4278344924543
46.3508731504487
46.286847913466
46.2091461247739
46.1984828804982
46.1899270975769
46.1201671319444
45.9939679216629
45.9013449811523
45.8646905498114
45.7986779865196
45.6943214322772
45.600564960782
45.5031767452491
45.4434153220211
45.4339448931493
45.4307394641491
45.3944764473812
45.3634855305327
45.3089863950672
45.2843329952999
45.2636353783377
45.2392828594462
45.2125660748572
45.1804407793093
45.1768872634515
45.2287585962497
45.2447963266489
45.1551976432977
44.9810574942081
44.873146695767
44.8805010890126
44.885145742809
44.8612028073508
44.9411675570963
44.9974623812967
44.9456844773772
44.8724998287182
44.8457161428323
44.8600167713514
44.8686039296786
44.8052563728589
44.7355621886818
44.700955386118
44.6680928485924
44.6438878900381
44.6556471197555
44.6874657132173
44.7190609365209
44.6954496093504
44.6737938692451
44.7152522266325
44.7359263836523
44.7265550065751
44.7443991313165
44.6801072916511
44.6114337335698
44.6306334527898
44.6299350408797
44.5478277547345
44.4992923452338
44.5299645221697
44.5726867014195
44.6292231724045
44.6745085943505
44.6473312174975
44.6405535073719
44.6443924227452
44.6242015098035
44.6069978560392
44.6434391382644
44.6887520866181
44.6787670599632
44.6512501025037
44.6516412740502
44.6462712317109
44.631209006421
44.6295896733703
44.620835247245
44.5544055605114
44.4971083505066
44.5131766262416
44.5309346498942
44.4844035955784
44.4762601737339
44.5569484997911
44.6423729362224
44.6765313188618
44.6942188649666
44.6305607397435
44.5637654540093
44.5257035740169
44.4902374761502
44.4871788701185
44.5068270879102
44.5382980140417
44.5633564479181
44.5580529161354
44.5415475530025
44.5441565524189
44.6020763828105
44.6259307077437
44.5842036018888
44.549473974225
44.5275179950772
44.5219087626328
44.5464772891551
44.5686641702152
44.5515232633131
44.4937953295842
44.4702952460742
44.5112983488245
44.5633784015376
44.5853973776181
44.5954936629573
44.5732551138161
44.5357522437747
44.5329965925694
44.5480241712506
44.5275618190528
44.4846615590107
44.4577485494743
44.4816597760522
44.5036154656878
44.5194683407278
44.5546177844394
44.606384988342
44.6452119694298
44.6248055238578
44.5936584515919
44.5844436807138
44.5732485902648
44.5860163883745
44.6098510348162
44.6668747840784
44.7022719736176
44.6734545880785
44.6687321743981
44.7115300801602
44.7356976678092
44.7372121763864
44.7222947998262
44.6867878318764
44.7131889125514
44.7992017180411
44.8565670712282
44.8591233579578
44.8334066484285
44.8740582043911
45.0035373159328
45.0745552772988
45.06242123883
45.07466331496
45.0980105215377
45.1090758603667
45.1121895968475
45.1331539707843
45.1479395614466
45.1500077676048
45.2000186460557
45.3031501528934
45.3653302281928
45.4177143449052
45.5095606715398
45.558567103964
45.5838556558578
45.6062687987991
45.6481839262702
45.7646832233821
45.8746575501534
45.9130622336579
45.9444585285426
46.0522368080663
46.165711603199
46.1938559227099
46.1970639576908
46.2777123135363
46.4165523310021
46.5352053494837
46.595907505068
46.6497102426848
46.7492132827198
46.8689303053303
46.9678920813766
47.0396170797943
47.114994111636
47.2110286686368
47.3315438805031
47.4191704984655
47.5028157025415
47.6197984282314
47.7196686223221
47.822446650844
47.9504578517715
48.1017793026708
48.2581425950961
48.3671370003314
48.5068533975173
48.668781781335
48.7621011825808
48.8294552617964
48.9658404579644
49.1029202030596
49.1696718971356
49.3279819698626
49.5251067298001
49.6314070091251
49.7229769875549
49.8635379775449
50.0432382624106
50.1988626446584
50.3520592083445
50.4813601638903
50.605552302408
50.7709846953529
50.9326179834373
51.0692272787117
51.2547709218416
51.4574886079663
51.6136508664482
51.7669094476018
51.9433678265318
52.1317152676894
52.3083831996527
52.4680839926914
52.6125627885267
52.738929303302
52.8999349166182
53.1138611900262
53.3325779829314
53.4768365591624
53.6409319944165
53.8625429759933
54.0588914045789
54.2425739747199
54.4254283504939
54.6133857082125
54.8209369232723
55.0182963797753
55.2355106199437
55.4269015363428
55.5548900434336
55.6867694976463
55.8373697558511
55.9980586845396
56.1816717461706
56.4095366174186
56.6579435325164
56.8993877464942
57.122603309977
57.3124257919528
57.4819283192666
57.6968243691338
57.9746443582039
58.1950827713152
58.3312525806758
58.4699706320768
58.6205561764286
58.8615333990316
59.1227834870123
59.2816553752524
59.4540827543776
59.6726377755076
59.9338318260831
60.2294370562881
60.4406027893821
60.605916061821
60.8022130564182
60.971029057926
61.1591202657426
61.4340776880315
61.6879716676073
61.8649548338681
62.0836149376413
62.3107353169302
62.5412454068665
62.7761102659266
62.9724215414473
63.1563181896942
63.3480348890458
63.5397515895344
63.728714331305
63.9506392193176
64.1807385168712
64.3888794853341
64.6107920315596
64.8644175488715
65.1206004492813
65.3187957189591
65.4672419325046
65.6304761775436
65.8320470539019
66.0506819664273
66.2650166763162
66.4670920755203
66.69432362389
66.9413403457209
67.1781908290678
67.375743837608
67.6070018085553
67.8113380043094
67.9547048209003
68.176974091819
68.4486094590566
68.6761381049186
68.9192316549786
69.1469576850269
69.3711292015748
69.5431880781803
69.7120791109671
69.9527167131836
70.175113354617
70.3291072860877
70.5197197923139
70.7281379445157
70.9211438526031
71.1312807023428
71.330873904019
71.5251173689049
71.7214764020851
71.9051082396571
72.0385047580527
72.2254882380779
72.4686804806747
72.7030617569354
72.911549809367
73.0782789255069
73.2702226311261
73.5147990998642
73.728354952924
73.9159771508471
74.1244034420748
74.2846829326499
74.4131538746691
74.5625546555228
74.7224567668514
74.9122452709091
75.1337714495613
75.3255221309273
75.5317738298454
75.7475828992454
75.9317557356798
76.1359425447301
76.3129743331993
76.4278099834279
76.5946814066183
76.8683745217413
77.0827338462258
77.2320305296531
77.402585724301
77.564169089386
77.7048306479706
77.8229987437094
77.9826729122851
78.2043240862667
78.3983894898506
78.5751706267313
78.7402891672894
78.8865852113774
79.0710481778821
79.2728024563568
79.4144050497754
79.5432610539903
79.6938754536993
79.8606125778938
80.0482879913586
80.2206750171491
80.3690514788356
80.4837003717454
80.5946205615449
80.7670731257276
80.9302000570152
81.0750859343214
81.2542573534743
81.4072493000942
81.5174564876281
81.6666871266754
81.9074488474228
82.091140388851
82.226010869103
82.351227010963
82.4324726418759
82.595005803684
82.794130515415
82.935798243657
83.0661802698543
83.2023050543088
83.3469380403986
83.4805499235644
83.5927974767401
83.7557643633307
83.9076448025875
84.0080604809034
84.1371773670932
84.2897907311002
84.418472438178
84.5544754465416
84.6864350993874
84.7930123427306
84.8839595137617
84.9894092404224
85.15032968214
85.3123896040298
85.4329784883135
85.5506230021119
85.703540220458
85.8382153033805
85.9419032181548
86.037302597143
86.1515440247101
86.2431440177384
86.3195994717667
86.4730337163392
86.6416388759783
86.7702927108671
86.8614153736084
86.9609017492645
87.0607831016144
87.1563420920562
87.2581736188355
87.3523892154978
87.4653841241597
87.597781195138
87.714550467689
87.8283822895228
87.960898062112
88.0286513588267
88.0673852085534
88.1773169247669
88.3284086247696
88.4664855227374
88.5365001261112
88.595747106449
88.7109440216293
88.8422671818064
88.9263243204096
89.019188154916
89.1165521137377
89.1845233339946
89.2975174460639
89.3943690705562
89.4707703127001
89.5817967183746
89.661651550412
89.725326275429
89.8494064807259
89.96737855368
90.017106052907
90.0733249634354
90.1581444591411
90.2555586863693
90.3526156840749
90.4200386476768
90.4512188996612
90.5143677694054
90.5886902323119
90.6932070849213
90.7785690988852
90.84941217646
90.9476613818404
91.0219397552947
91.0926983630187
91.1620713176148
91.1971079912415
91.2885429463818
91.3929298725508
91.5000821387613
91.6027120451573
91.7270189841328
91.8098382488426
91.8323264144992
91.875165724617
91.9396916649883
92.0034577071219
92.0693092075218
92.1154291151524
92.1959124323737
92.2485060508394
92.2899915237412
92.3680235143687
92.4391642871957
92.526838506838
92.611438780865
92.6489099880565
92.7052421321229
92.7857533067874
92.8649607242686
92.9143589461133
92.9663358632209
93.0347800991937
93.0752842245845
93.08192652705
93.1129863703119
93.2111855148627
93.2920720230251
93.3094656549495
93.3460030951824
93.4951351158025
93.5828935387361
93.5808407088458
93.6658663979978
93.7591432155747
93.7835923494454
93.8028617404176
93.8722103662813
93.9434467492359
93.9972840455215
94.0093871366563
94.0221838767789
94.0724444794882
94.1428137638879
94.1901456041867
94.2402926890127
94.2757293275232
94.3254860700291
94.4148898788082
94.4895062324307
94.5194363604119
94.5084954001543
94.5470924153449
94.5968042249901
94.6660667502124
94.7135972653424
94.7493722414595
94.7724825071537
94.7876191968351
94.859923493822
94.9451260055146
94.9632459186573
95.0005958710457
95.0596749881567
95.1098567777215
95.1711656631327
95.1813219759138
95.1747385921986
95.1813042349677
95.2084097656472
95.2755888852586
95.3065909124341
95.2952200581824
95.3207789532367
95.4172863639441
95.4969094206711
95.5489993090845
95.6165606984191
95.6613925530507
95.6672255988862
95.6498878884542
95.6841126273421
95.7369420416107
95.7659037317636
95.8288425746229
95.8704840988128
95.871661157319
95.8874029265364
95.9419364366669
96.0324949540781
96.0343837789251
96.0312010603262
96.0779118611648
96.1247839330346
96.1536420206309
96.1742870974308
96.1755017786797
96.1823469056379
96.2097161608725
96.247517948583
96.2500860979366
96.2642490711198
96.331184597893
96.4144812042464
96.4561919485169
96.4484067596942
96.4622631368046
96.4839886110187
96.4730392803706
96.509043347137
96.5745348275711
96.6097497634612
96.6468907083948
96.6657055936123
96.6561740293022
96.7095880853176
96.7669662696316
96.8017591155417
96.8203229316953
96.8098329674208
96.8334664991955
96.844599499574
96.8353417673943
96.8900063579836
96.96721509942
96.9668659722504
96.9565410780961
97.0027828549707
97.0299890231515
97.0124211903002
97.0060137206336
97.0172235414451
97.0761640188371
97.1268108654405
97.1129111570243
97.0848937847173
97.10632300515
97.1739462912146
97.233253876535
97.2327722175321
97.2322686385324
97.2570390981284
97.3023843317558
97.3226553078849
97.2956841117776
97.3158052979074
97.3693227400795
97.4387392175137
97.4347984758674
97.3556899208075
97.3536850672207
97.4295749803379
97.4878173138313
97.5091137022386
97.5042484821236
97.5175361183464
97.5618905960108
97.553833633269
97.5640449363436
97.5772818976189
97.5420884364768
97.5356685747783
97.5506252873629
97.594991761826
97.6196924606749
97.6578324661987
97.6961673012202
97.7119104818839
97.7259879297488
97.7263593473547
97.7365799283059
97.7648094994236
97.7639267505951
97.7315532652363
97.7517554150326
97.8045981434014
97.8323538952442
97.8494372657492
97.8472128225033
97.867304686751
97.8776687257148
97.8814765960463
97.8843552090725
97.8899228925819
97.8984914461387
97.9195972322346
97.9578095669795
97.9560997135519
97.9399767152849
97.958576450842
97.9925642925787
98.0181637156639
98.0333608760075
98.0438610518124
98.0249533455982
98.0034269313888
98.0210975096174
98.0444477285544
98.0529253037504
98.0546887550049
98.0782867895468
98.0994230787344
98.1081844464467
98.1037525363811
98.0835394054318
98.0740230904249
98.0904586176713
98.1179995141366
98.1079103687193
98.1460202614562
98.1941706579854
98.2214128861907
98.229885117866
98.2171118665365
98.2140680433483
98.2189006853907
98.2266138604172
98.2338254388921
98.2410321163151
98.2563800648159
98.2708347587728
98.3104202361045
98.3265108983524
98.2977887072699
98.3081931852357
98.3014256750948
98.3019426481088
98.3096126251536
98.3163826181332
98.3363337859897
98.3018939358179
98.2796579887291
98.3265793949717
98.3487601180567
98.3593155065194
98.3861147945995
98.3969112965057
98.4014015640226
98.3910926066753
98.3904864737224
98.4277470973244
98.460103154645
98.4606813103232
98.4595670879632
98.4434578570259
98.3937688074076
98.3955240227267
98.4405707151462
98.4620398140912
98.4474573950704
98.4467104325442
98.4722891759508
98.4860684753713
98.4892453114544
98.4701695074661
98.4355287406521
98.4444701905504
98.4908901758497
98.5059564365366
98.4933475649025
98.5135041177252
98.5121820461902
98.5129507340238
98.5046584729597
98.4951882119813
98.5170073946864
98.5472460581838
98.5788264088863
98.5417362378144
98.5278978878972
98.5371235190378
98.5444124111699
98.5651546204791
98.5942433874161
98.5937137293899
98.5733378137383
98.5658130853167
98.5918581118949
98.5864193200054
98.5548050671031
98.5519464492259
98.5657143224617
98.5651397345344
98.5794691618747
98.6169409106111
98.6456665991328
98.6307996290272
98.5967435109986
98.5929994790327
98.6330781850714
98.6694252678479
98.6673799919473
98.6654207375133
98.6551030040716
98.6366518093539
98.6458494433163
98.6565180442541
98.659759490171
98.6379858971346
98.6535592909362
98.6656434764968
98.6721102249004
98.6868716932751
98.7041121171215
98.7013554191514
98.6816322170782
98.660557351706
98.6571476987048
98.6981072937227
98.6893226078876
98.6695982050594
98.6952270420243
98.7055561582961
98.70349318153
98.7036119099083
98.7382921849946
98.7349114081518
98.7469897683705
98.7436960386518
98.7143997722745
98.740415646375
98.7643204378722
98.7674215224298
98.7861726818157
98.776202377093
98.7634336626359
98.7900335260153
98.835502777615
98.8334515694088
98.8122797741523
98.7701853441996
98.7804550508598
98.8172636444792
98.8141968029813
98.8714814250669
98.8986146782417
98.867791172261
98.8378661792216
98.8573612826953
98.8761332859922
98.8757142870171
98.8842684283562
98.8878047864612
98.8904657603492
98.8503436922848
98.8516481481011
98.8967753194129
98.9261875182055
98.8867987820879
98.821373098119
98.8248008377464
98.8762076895466
98.9373001814728
98.9469328255893
98.9129581137087
98.9490991498064
98.9734448505721
98.9266904118078
98.8834012674562
98.9144196646433
98.9475746137301
98.9603996608177
98.9631384779097
98.9740464945512
99.0092224784924
98.9891795265289
98.9596347892105
98.9734838096423
98.9622908613685
98.9386004464733
98.9252818627389
98.975685826563
98.9999656554764
98.9789186628089
99.0044627089692
99.0135332057252
99.0153209038473
99.0216116668481
98.9941723182061
98.9996202734901
98.9889114513664
98.9579375024943
99.0030651483266
99.0051207181295
98.9926579608935
98.9914673924838
98.9773320006068
98.9531225782963
98.9349304633739
98.9954039199095
99.0126695835333
99.0466097294425
99.0820825239424
99.067771047946
99.0156875598083
98.9912095902604
98.9902655780989
98.9999239459055
99.0137217766749
99.0283269546238
99.0036174341582
99.051872142428
99.0500121951318
99.0038330930643
98.9962928236905
99.0038774154397
98.9583507725549
98.9724555472251
99.0369924838886
99.0482883149916
98.9899420367424
98.9169267656055
98.9419244497777
98.9479216274534
98.9849154462617
99.0628907844885
99.0099886468356
98.9553395890816
98.9607377677536
98.9815041907882
98.9599970021719
98.9775854681569
98.9841228990077
98.8994476876861
98.8750175127894
98.8789704223141
98.8991876770865
98.9310085498197
98.9258417302277
98.9218060132679
98.9631313940613
98.956619269423
98.96985547188
98.9670273751411
98.9466723240746
98.9858167553218
98.9554350079405
98.9808076262562
99.0286961258619
98.9438270958588
98.9119109141428
98.9076332826719
98.9299771044623
98.9451453097575
98.9085330063829
98.9077316276698
98.9186336647162
98.8215795486177
98.7774657708429
98.8611059374948
98.9008698351092
98.8789861356574
98.9123229792196
98.9528355107961
98.9314476497047
98.9337677623465
98.9108173060754
98.8611754365557
98.8587023691267
98.8916700973194
98.88975622508
98.8623485527228
98.8089513194199
98.8237918719792
98.8065312531641
98.7970095891655
98.7884908403769
98.7884546983564
98.7819393556099
98.7742159778658
98.7837917361293
98.8128834245892
98.8352654418455
98.81482843197
98.7332445296354
98.6717508684843
98.7498971708481
98.7884860399423
98.7920419860302
98.8126970721593
98.7601423805826
98.7620039387779
98.7543440247744
98.7265308957067
98.7303862395198
98.6512765812626
98.6364933142661
98.6705638071173
98.7319882435623
98.7924126593543
98.7000392852144
98.64749297107
98.6572328330667
98.7233923402077
98.8087109511106
98.8330373767839
98.8012372711434
98.7410556316864
98.6926325142163
98.6519102107984
98.6254319814489
98.60805893802
98.6057179433282
98.6375430594139
98.6332809297882
98.6203722962138
98.6104805807341
98.6392087280181
98.6224056959924
98.5446560935126
98.5264085814179
98.5394129393757
98.534551010817
98.5732966884325
98.5946392087112
98.599462142283
98.5347646732551
98.4938381637477
98.5474197533332
98.5609287410068
98.5812862998846
98.5997573582439
98.5606576460509
98.5228256463264
98.4966805342428
98.4936633150429
98.4863208313792
98.4769760077731
98.4724818135794
98.4579103296902
98.5324359200554
98.5450588204683
98.5111793575192
98.4518985925368
98.4010239686223
98.4245563984895
98.4286782774663
98.4215891113024
98.4555424371057
98.4913097715429
98.4180529547475
98.3953644368029
98.4698879667771
98.4855369212695
98.4399430276389
98.4098181059689
98.4076041611799
98.3596512618401
98.3653634286629
98.3819405763523
98.3630805741256
98.3613665271471
98.3459838224494
98.3056589102741
98.3258995322155
98.3741237273734
98.4046498174334
98.3740025616673
98.3192957524532
98.2730605669776
98.2589678195662
98.2677146709712
98.2066920486103
98.1878222716789
98.2053615137505
98.2068134511762
98.2317528398156
98.2410338814471
98.2187559789469
98.1961922599282
98.2154496975048
98.1999890356039
98.1863329520348
98.232276864377
98.2078406870819
98.142720285863
98.1061310439675
98.0895460203437
98.0705161380845
98.0737682033255
98.1138446918575
98.1528016450178
98.1530262668272
98.1110782275779
98.0733329733844
98.0463965570438
98.0330663026025
98.0198182852697
98.0331180530222
97.9933152763163
97.9467512386215
97.9803117970116
98.0105980383184
98.0083968424806
98.038098878207
98.0403353832885
97.9634896799116
97.8858473056042
97.8648958027102
97.8667757160687
97.8882917229429
97.919897365116
97.9257531947833
97.9186621246689
97.8739453410402
97.8309831094311
97.813778736174
97.8586027359368
97.932000438018
97.9439562768813
97.8982484535111
97.9115387773923
97.9574753134035
97.966043919607
97.9267754143276
97.8815991533604
97.8579266751401
97.894300948599
97.9035380018806
97.9020044291644
97.8670264308715
97.8437848791176
97.8809202439173
97.8980799147522
97.8215560987641
97.7326673338349
97.7185151405178
97.6921470672761
97.6823200967748
97.6624614600901
97.6069674200241
97.6047943882999
97.587081428853
97.5934318494119
97.5264603556834
97.4543451344437
97.4601727611995
97.5462404206663
97.6053335252825
97.615124614088
97.5901455651723
97.56265967297
97.5070194177001
97.4889153981687
97.4919963191054
97.472502041918
97.5344447009559
97.5867168878645
97.5564635550102
97.5544618304762
97.5312837742637
97.4933876580302
97.4600739339273
97.4079032021565
97.3814758331798
97.3990507748997
97.4421460993121
97.4294013317252
97.3896541080227
97.3500122920481
97.3763255554582
97.350801673075
97.3673086840525
97.3171188604117
97.2800327658924
97.2961475784155
97.337695376568
97.2830152954
97.3367114617313
97.3119747015281
97.2756261606777
97.2351200598765
97.2978988157556
97.3792626266427
97.4059143776932
97.3383053037551
97.3101852899761
97.3538307021969
97.3565813819387
97.3555035966966
97.3100242070664
97.280293075665
97.2249061518922
97.2055585776444
97.2348745650926
97.2492516382728
97.268696887547
97.2484587997446
97.2587106218726
97.294047313448
97.2634829504528
97.2368978524922
97.2299424436312
97.2298274626483
97.2471617652484
97.2312614048371
97.2015882606381
97.1962286300422
97.1813593923012
97.2537078776756
97.3062469236272
97.284055849588
97.2860967510863
97.3158618564073
97.2898702958232
97.2492232197477
97.2903211100579
97.3077681447744
97.3189961111574
97.2981887898095
97.3419518797581
97.42977573539
97.3836097909508
97.3221839845355
97.3816488122383
97.4551870415874
97.4449991805053
97.4313224043384
97.4197065128581
97.4652281607428
97.4498198961141
97.3938911977761
97.4264235129368
97.4070402530365
97.2765179460497
97.2963428720754
97.4372515995894
97.4695795632598
97.4526346889925
97.4281007320136
97.4612938042968
97.5052879163989
97.5493706063478
97.5813379928668
97.5693499915409
97.5010557380356
97.5023116771967
97.454526123028
97.4620684637128
97.5641240070703
97.5408465680396
97.4782602955463
97.5309065538143
97.5569212965883
97.5650277467123
97.5482998111982
97.51219324333
97.412079116241
97.4106262600181
97.4784466839989
97.4216077643292
97.4441247837828
97.5243427054896
97.5566868635031
97.5682112947933
97.4903054424981
97.3995942125391
97.3872330840747
97.4875639180317
97.6102444112165
97.6850615631385
97.6792198969198
97.5919070165087
97.5242156639745
97.6600268455115
97.6568056446851
97.539285282311
97.5002910384915
97.5278671854674
97.600451112036
97.6863931370667
97.6358990110277
97.6706199048677
97.7039646820856
97.6580083055231
97.6827926119279
97.6138746882323
97.5488953049088
97.5363041184262
97.5086602651249
97.5274507787334
97.6591672287501
97.7185440598928
97.7236931281295
97.7937770113375
97.7354474741174
97.667122695246
97.6482566857249
97.6858222256221
97.7710955788994
97.8644595629509
97.8689448800031
97.7912033692389
97.6524274556733
97.5923222107205
97.7216873007655
97.6811634969262
97.5542628387134
97.7167281273188
97.761482266472
97.7149136968037
97.8900992692317
97.9815522816459
97.9387263606661
97.8235129111284
97.7866282925543
97.8485453769129
97.9239187592021
97.9385745209534
97.8791692737174
97.8585454090981
97.8738225843611
97.8927626574684
98.0393221573651
98.1945303034967
98.1842044396411
98.0954712438763
98.0117628048813
97.9336142381206
97.96757345429
98.1390468133844
98.1921044270248
98.114916599621
98.0356929626621
97.9925066731516
98.2117749523487
98.2573926525493
98.1063800086349
98.0550528312777
98.0410169040328
97.9148393506048
97.8944521462227
97.9678762280718
97.899987181333
97.9698799455524
98.3012489147209
98.413375245916
98.4364789403387
98.5754185703952
98.6909043828747
98.8724106541543
99.0105565178997
98.7922126570765
98.5290221672317
98.4632935911769
98.5374641618049
98.4208206329462
98.2456959621773
98.1018396016434
98.0664825075831
98.0744280640581
97.9876714048186
97.7563228334763
97.5341621748029
97.5193236118042
97.4467462616278
97.2474287656519
97.2776099458354
97.2444013156579
96.9991433790608
96.9944437148126
97.0333398714212
96.9420939453539
96.9796681636687
96.9164417564182
96.7905321787421
96.9524302838909
97.098797602893
96.8549045385163
96.5921901017196
96.577248609806
96.5634880150571
96.532310710761
96.4428483486701
96.3558482998776
96.388906934989
96.3920525076705
96.2895056276899
96.2722911570334
96.2097962465956
96.1187867385022
96.1272924513053
96.1538174193406
96.1448154041721
96.0713142266084
96.0071352284303
96.0340670578634
96.0004397466133
95.9892681414613
96.0820215227365
96.0400326963822
95.9998585910431
96.1037710579319
96.0923103453033
96.0809004400804
96.1482498558575
96.1978320727345
96.2090046898484
96.2229110093993
96.1919663961398
96.1057332507614
95.9691417633113
95.9178350592877
96.0190121910772
96.132698041214
96.1010540183698
96.0003422476216
95.9781436632107
96.1004901098578
96.2392888203363
96.2879026915129
96.2428778212765
96.1719620646559
96.1346462934609
96.1770031765983
96.1788340978681
96.0976424462049
96.068126453078
96.1537642665091
96.212870293287
96.1494092391685
96.1151946700738
96.1776291160031
96.2479647694084
96.3012296917775
96.3321026064436
96.3629527729968
96.3904879174335
96.3747738926055
96.2961249967705
96.3100809541342
96.3953066581696
96.3806904704359
96.3807941210372
96.5273532808407
96.6605568363786
96.6768589927541
96.6530466310554
96.605342809035
96.519298909755
96.4960000756193
96.5707004358085
96.6616137010609
96.6608593257953
96.7236126058979
96.8378781651335
96.9271541644896
96.8971809844739
96.8680264339202
96.9060911304638
96.8680866322767
96.8261572716374
96.740986371359
96.7595209137909
96.9435196928304
97.053828480826
97.1717052052448
97.2677872012989
97.3854485099232
97.5295495895504
97.4632625655431
97.3354615498846
97.3969533122936
97.5389378543159
97.752002514767
97.8489211289748
97.8264173054722
97.8818393469358
97.9459732052245
97.9914890736776
98.1853380797477
98.3973597162377
98.3661121750923
98.0073158838049
97.8873699232384
98.2515656743911
98.5331129286961
98.4259800447612
98.2421329813583
98.3518762985977
98.5117405145522
98.4937377131838
98.4410063602788
98.3427078418012
98.401956772757
98.543817394125
98.5520308111406
98.4941185017074
98.4458699160474
98.5074888670124
98.5788313340674
98.5727328923157
98.5568985817076
98.5228593208777
98.4392507926813
98.3049119448011
98.3122882477646
98.4535820926288
98.6037079388593
98.5249098427059
98.5223540036431
98.6351595806216
98.5577086818385
98.4508612299994
98.4651820286904
98.5234188276729
98.4277647542594
98.4436568831212
98.4723417362014
98.2287057396734
98.1631467182313
98.2587858692845
98.1485703657354
97.9933117767716
98.0092118224068
98.0105849171931
98.1615757348625
98.4104441715925
98.4031515856141
98.264151732412
98.2169583273341
98.1523190784702
98.1849116499026
98.2563583702106
98.2413082333491
98.0675042461098
97.9755093075882
98.1982672476171
98.4113607941542
98.5963979695648
98.7707279078391
98.7502071329368
98.7142337216416
98.716251067208
98.7490108874202
98.7939004737971
99.0117296185003
99.1466097509231
99.0609189159514
98.9385488727326
98.9130980771816
98.8589380453658
98.707555757093
98.5888851625563
98.4821650534486
98.5793632547638
98.9272668929978
99.0503521788614
98.831096895477
98.5838694645547
98.5824809863711
98.5409357186149
98.3526413275077
98.3715901842789
98.5143375823387
98.5527084355152
98.639478478839
98.5077835630243
98.1720876694036
98.1219358944489
98.2329880524499
98.1017705985065
97.9844295195608
98.0952301661197
98.1415368508221
98.0162551598092
98.0107130020417
98.0225507071904
98.0092780688925
98.0606080293531
98.1165083642851
98.0653732110939
98.0029758018723
98.0771447035558
98.03618221372
97.9453554273624
97.8891444055862
97.799638991304
97.7930216594571
97.6849386633366
97.5626685490357
97.6742599857681
97.731992427835
97.6985016101372
97.6694383923504
97.6689267514441
97.7050923520886
97.6688782332155
97.6485679419774
97.6844393304928
97.667921103768
97.615647896031
97.5811509309483
97.5946659118776
97.6638089600445
97.5704081220841
97.4832765637121
97.6187159994223
97.7304909469244
97.6913451622681
97.641765578646
97.644481503108
97.5966639873097
97.5669971195453
97.6030763487215
97.5676746855844
97.5075102027485
97.4833677730616
97.5145136515222
97.5386478917707
97.5601088828152
97.4432606546475
97.3960391986497
97.5215067772077
97.5816139332214
97.4840479604658
97.3850075035189
97.3576600679751
97.3695191549528
97.370478225876
97.3887395341137
97.4226304325936
97.403986681464
97.4346377757512
97.5119800266882
97.4360329513241
97.3630064759897
97.333453789022
97.3463156249233
97.4004658365983
97.42470278992
97.3154884922151
97.2438842230432
97.2794198832703
97.3453620545699
97.3875799017428
97.3600124655525
97.3119540002771
97.3207435146099
97.3668096894501
97.3917106543198
97.3271519383265
97.2989135809737
97.3039247886386
97.2519218178136
97.2685394866044
97.2975667568889
97.3044256456301
97.318611403644
97.3097843595696
97.294770140584
97.2947589804218
97.3420517834525
97.3238321684184
97.2018710608169
97.1314881123424
97.1677242250586
97.1673032654792
97.142302488384
97.1178781510336
97.1641316281282
97.2099917371441
97.1968804041604
97.096537493286
97.0601216379051
97.1745476951395
97.1950951150916
97.0995521271092
97.0841993174502
97.0456807025664
97.0258947186457
97.0454457954115
97.0499623492186
97.047999854635
97.0916386193664
97.0634408244475
96.9909999465024
97.0220448303178
97.0799668902393
96.9944051275102
96.7863379753481
96.8627237539754
96.9907693214531
97.00543938648
96.9444537892386
96.8874166867233
96.894047062628
96.8942469539417
96.8724272215756
96.8618917446371
96.8973824585742
96.9295458500052
96.9055071403454
96.9190876578749
96.9144538412624
96.8227474392731
96.7934630605501
96.7903997071091
96.8122644792758
96.8172659012149
96.649016656156
96.6186521766677
96.7094640398777
96.7084979564832
96.6680646876022
96.6200620690897
96.5867698793321
96.5938289270504
96.5998227996308
96.583989147106
96.5760125461123
96.511736445859
96.503716491617
96.5273213396956
96.5201792454566
96.5115827729899
96.4736799689172
96.4526650242408
96.4448165997031
96.3949502234714
96.3784372921068
96.3606232739769
96.3290015953048
96.346674811382
96.3281343885175
96.2513474567957
96.2594487852684
96.2461822308947
96.1702701062267
96.1851285500499
96.2124225848129
96.1581216792524
96.1013109130763
96.1379210337603
96.1250400741968
95.9665813538446
95.9672158540889
95.9131653622571
95.8989920454234
95.9574429381592
95.9586208876265
95.9421442566288
95.9230070076412
95.8254445785067
95.736717649524
95.7740376026144
95.8081515663987
95.7760278688487
95.6706161063757
95.6616193352816
95.6650664905343
95.6592606988074
95.6566623345081
95.5948649246627
95.5691283155556
95.6117652384888
95.4618323863345
95.2406954392756
95.1960932986332
95.2705458525368
95.3752714915223
95.2611589837775
95.1176779266474
95.1275745153918
95.1368043638924
95.123622635259
95.0986346299022
95.0799866633314
94.8929658074776
94.7788892433714
94.8381209027505
94.8141201025809
94.7552404848527
94.6880573940693
94.5733843767076
94.5681278146014
94.5611157663713
94.5118972691499
94.4659400513324
94.3390687293552
94.1374748284196
94.1472222430496
94.0505032291329
93.9646754557599
93.9216938873736
93.8935826355325
93.8964518953075
93.8136781425582
93.6413178904786
93.5736613147929
93.5777922527617
93.4710952099666
93.211872247429
93.1678717723885
93.1780589962681
93.1161465610535
93.0603594585104
92.9031184690372
92.5958280773772
92.4780981485258
92.4964792396472
92.4623680000898
92.3006548769103
92.1230992662908
92.0657866337255
91.9736789464177
91.8488270064217
91.7114758911172
91.5937500776068
91.4126760860272
91.2252261364675
91.1196340835916
91.0130958124907
90.8759297026053
90.6642535235028
90.3261018316368
90.0603262001024
90.0643449500939
89.9905489782058
89.6922023428917
89.5583890476607
89.4395225439535
89.2389372233343
88.9591080255187
88.7205264794152
88.5532743261043
88.3590134599397
88.1042866168816
87.7915890500501
87.5731043187308
87.3568071944192
87.1788124676777
86.9918534531535
86.6662075520907
86.1161027854518
85.9201087913218
85.9425790630955
85.6820433102169
85.3291916438518
84.8558106462512
84.6707770990409
84.5851151349038
84.3226430039562
83.9747708000747
83.6434782376383
83.256467202362
82.8786580555169
82.5211966134373
82.2119829975344
81.8924451475505
81.3904545377819
80.7393860140625
80.4942745637355
80.5652227998683
80.4754980777537
80.1042848542932
79.6233565951551
79.3017315053107
78.9725780465725
78.5177807178654
78.0114308833383
77.4710544815596
77.2769403808971
77.127524423732
76.74027313124
76.260900276665
75.8030331273055
75.3467846429956
75.0062775567905
74.9500713928016
74.7355518248677
74.3527838371852
73.9051895688001
73.4048614427886
72.8661350239206
72.5179716651319
72.32468964807
72.0394510050063
71.6865182321612
71.3131794970255
70.9350862049334
70.5214711585233
69.960001553045
69.1554083511713
68.0565693657108
67.6416553881012
68.6572864587149
69.0655574310648
68.8328136832788
68.2840852302825
67.6310064711905
66.99858088025
66.6955653954019
66.9273431771111
67.0873843739197
66.9326150140504
66.6403677598221
66.330794829826
66.0355751161013
65.8004685034118
65.490042979687
65.112861859672
64.6454294782124
63.9488457153576
64.0861871402847
65.2505420590105
65.7983964772193
65.8473356491952
65.7883672807776
65.7599418308976
65.6270441545549
65.3243644509315
65.3300682462223
65.7752391390627
66.1318018288175
66.0734752229923
65.7978934421897
66.1679161743805
67.0137739393341
67.5880852389266
67.9138562241426
68.1696141911779
68.1245186036383
67.5460228484242
67.7138151375659
69.1175086199521
70.0597421059712
70.5398492190663
70.8959691473658
71.1965678628555
71.4294651219246
71.604781444254
71.9506385438066
72.3598324976079
72.750716583954
73.2167607341971
73.6931860345146
74.0395337084513
74.3130977286524
74.6688743779804
75.0896878145651
75.5079167383442
75.8840612862628
76.2298877771429
76.5514872311652
76.8463107131488
77.1114622832464
77.379851855374
77.7292894178549
78.1022171297701
78.414097562158
78.7107712467787
79.0170542657345
79.2930642720846
79.5419270659772
79.8243218826385
80.0754049594387
80.2995774570408
80.5314152613204
80.7565255084738
80.9797378995052
81.2092724051413
81.4318806169647
81.6512083481859
81.8646249369142
81.9656091772291
81.7382295319623
81.3950828603601
81.9875616448184
82.8036933130327
83.2103884114688
83.4456246462914
83.5603150379146
83.3853961248647
83.0753541949562
83.2908366856865
83.8676441037965
84.2478549166455
84.3548441795727
84.3248034992073
84.4122149539719
84.6206006815267
84.7819113830693
84.6906855031239
84.2182779624271
83.4708950198872
83.0543422980672
83.9497236623097
85.4075894152179
85.944574158987
85.8544573435861
85.7577049859919
86.0076648083012
86.1597059348096
86.0586733332222
85.8465268069435
85.8944461005275
86.1617602841609
86.3516461865441
86.3242177484521
86.1354728467517
86.0747496889539
86.1685862234006
86.0987771267638
86.0803149733589
86.1722616818387
85.9755147974321
85.9887514648443
86.9267225386094
87.454075927485
87.5548103075302
87.446014397785
87.1515475238117
86.8684071255536
87.0027280224565
87.295587541345
87.4829848354133
87.5624182330799
87.4915146908359
87.3500385594223
87.3471602125398
87.3035504173943
87.3758897002611
87.6123317883512
87.6595690081714
87.4491965433562
87.1730804054877
87.2793035961076
87.8396884652241
88.0750424312914
87.8771169120963
87.6996487853278
87.9122676566006
88.1374585105754
88.2563641154494
88.2060409690744
88.1491462923283
88.2057232756632
88.1560620894737
87.9892043541692
87.8266313852665
87.5788373997762
87.2146950564227
87.6442007696359
88.4578689957196
88.7911369091961
88.7982162737163
88.6786401353286
88.6178967272081
88.515549580899
88.3279987288822
88.3253850654356
88.327635276607
88.2660663918122
88.4978568409132
88.7755340715177
88.8521702490984
88.8436287843066
88.7146942884581
88.4320237879905
88.2691475622927
88.4722562182869
88.5983613606221
88.705133897486
88.8787563295827
88.9862456966821
88.9974072899756
88.9816267647126
88.8964128956348
88.8180320873345
88.8327174911401
88.8841020355059
88.9425199114551
88.9210793096037
88.7433772599625
88.7385346101278
88.8365800576331
88.7438733222537
88.4996312437321
88.5110877281404
88.9169084578915
89.2131555999411
89.2796756171936
89.245722524913
89.2243470191528
89.1458107873075
88.9120235576805
88.785313684219
89.0095870903241
89.1987058195003
89.2258603084204
89.2249307629806
89.1264568139056
88.9178346373087
88.6582710542375
88.4044937909712
88.5397919473719
89.066509610025
89.4381793034812
89.4957343456304
89.4171134301836
89.36768165625
89.3609951707094
89.3299800419427
89.2153177762749
89.0862973673195
89.1458015458527
89.2872977331258
89.3478613032363
89.3485425652356
89.3553662617034
89.348088165766
89.3476269595257
89.3522713255098
89.3679019619846
89.371380851639
89.1698243350242
88.8682305046987
89.0779539017604
89.4294409753063
89.5284828228773
89.4838573827847
89.4798629596461
89.4302019459218
89.3248836817708
89.3133216409357
89.4104408675297
89.4886245859217
89.5082478275945
89.496106600174
89.3743010415295
89.3095230323114
89.4267003510198
89.5345855998155
89.4972451731743
89.2312571372831
89.0683100604218
89.2534907225527
89.4524129725919
89.5714430986553
89.6372421461008
89.6515762757511
89.6070361012345
89.5158666846667
89.4561977455482
89.4597429003778
89.5029376556572
89.5282915169848
89.51829421517
89.5377798659257
89.4677834067418
89.3562416529432
89.4025471066316
89.5151129812166
89.5785850216545
89.5919004139929
89.5318812423807
89.3504422938091
89.3433593095974
89.4765811286487
89.5298682390346
89.4703177502865
89.3901499501334
89.4915877961549
89.6670554814835
89.7109162737089
89.6692171897786
89.6425675263352
89.6367490437081
89.5131109071979
89.3727000706497
89.4588070985848
89.636838448705
89.6915387689858
89.6628609628097
89.6308438609023
89.6280724382182
89.6195310096273
89.613858234134
89.5910501424549
89.5966320337378
89.6427388302395
89.6325938533799
89.5588039540486
89.4645431604565
89.5101602065952
89.6575082793836
89.7184842735604
89.7307683982187
89.683748021411
89.609146989625
89.6245197457294
89.6724321184931
89.6716587919567
89.6861666329347
89.5930533735403
89.4555329355877
89.4783328205796
89.5580527259916
89.6614596833821
89.7193846268393
89.7009589946832
89.6645188072535
89.6685451205772
89.6386965039985
89.6038275637528
89.6226322584224
89.635610021359
89.6327991245988
89.636880610663
89.6299419397003
89.624113263721
89.6321740970143
89.6461173769428
89.6545401810389
89.6613936067249
89.6520647081596
89.6516472951756
89.6662878630775
89.6363898008248
89.5506514920237
89.4900028274472
89.5299261640279
89.6393276482902
89.6643698110254
89.689286280303
89.7321186429404
89.7513540366667
89.715726744975
89.6839456870335
89.6789972764689
89.6632708987978
89.6614476135482
89.672441092827
89.6682952424363
89.6647064891302
89.6824807231622
89.6793234026928
89.6708685139052
89.6765470478474
89.6837110945313
89.6692991395624
89.6352591175573
89.6061571820623
89.6416352314214
89.66069876522
89.6837353306641
89.703705420341
89.6925200139256
89.681345321837
89.6703834975663
89.6921190313033
89.7095661551384
89.7023995666239
89.6915401711058
89.6819721097356
89.6730993435057
89.6829441789116
89.696065868529
89.6924175835733
89.6864558286963
89.689455120022
89.7058586001982
89.7133473693601
89.6998893759067
89.6854534886259
89.6913868901951
89.6957810823899
89.6786597609767
89.6640265993256
89.6791510139647
89.6961993567506
89.7063349299447
89.705871279146
89.7017662926507
89.7186514677509
89.7257408128929
89.7199095915912
89.7209572702331
89.7126747596117
89.7246466827429
89.7264715937495
89.7191820727885
89.7333241834286
89.7200432033862
89.7010122770699
89.7161567264244
89.7235037516974
89.7211553740693
89.7205479330648
89.7230754020077
89.7390467768345
89.7546613885176
89.7520572196966
89.7357779767489
89.7347497018569
89.7330591540534
89.7283869511779
89.7406237266764
89.7485305207098
89.7453612920963
89.7447193876943
89.7476494414908
89.7568074531264
89.7702213720656
89.7644679610968
89.74411322517
89.7431119601
89.7393596996797
89.748811933857
89.7638463547535
89.7606937858297
89.7582828872156
89.752911999044
89.7612631044502
89.7710632552562
89.7640813361797
89.7615917108808
89.7572045709229
89.7530021524625
89.7572480165479
89.7655006805349
89.7734636475404
89.7757376911722
89.7744666235903
89.7663404084768
89.7706688918234
89.775873698943
89.7884281200471
89.7943940734544
89.7898448093047
89.8076044325485
89.8199182623644
89.8177670327347
89.8092989316104
89.7963954797861
89.7989414427304
89.8138722861567
89.826861406922
89.8230117455707
89.8218325022849
89.8313749442194
89.8340439328755
89.8312975939953
89.8352027750642
89.8454183293828
89.8529352430291
89.8592050791495
89.8585255417791
89.8478325954926
89.8532272407683
89.8496786709341
89.8473605880788
89.8591131379247
89.8667444812499
89.8667458465801
89.8747056802976
89.8752131895617
89.8695039102503
89.8698148132589
89.8712100940502
89.8682946438084
89.8713124800041
89.8734725814293
89.8794576304159
89.8876149567049
89.8911599364679
89.8792694772394
89.8685254084871
89.8686423614334
89.8774146960367
89.8700466548126
89.875542104501
89.8858029541431
89.890790244908
89.8979251599912
89.8904442713034
89.8733506032432
89.8885932698994
89.9065954822931
89.9003402026928
89.8822655113755
89.8661322956571
89.8640781653309
89.8702817887622
89.886547553476
89.8923836150049
89.8963180686909
89.900218980204
89.9001149690755
89.8968983148224
89.9047769943403
89.9008832170569
89.9005883242364
89.8984379707258
89.8926944159207
89.902718054223
89.8950561037131
89.8844436970474
89.8954926344738
89.9028800753985
89.8974415946954
89.9070542035768
89.9024315055082
89.8855109011876
89.885644458492
89.8925842102368
89.8843949178212
89.8825386191204
89.8926634871111
89.8893654922281
89.8798739817523
89.8836373665686
89.8768515227311
89.8680202906632
89.869572143492
89.8814963691216
89.89256681551
89.8914839302319
89.8853846980875
89.8908208865629
89.8859808413197
89.8736973017083
89.8764773404207
89.8804120368145
89.8783571458541
89.8769929552263
89.8852661772283
89.8807278389974
89.8747201714093
89.86651535119
89.8501157316271
89.854947644706
89.8517972826038
89.8425257943523
89.8358613789411
89.8334435205431
89.8322210802392
89.8315855916053
89.8316669056094
89.8268210578765
89.8303509063984
89.8424723815567
89.8314981026638
89.8036142552433
89.7936564750389
89.8123788393908
89.8194272611054
89.8034750419263
89.7927008817085
89.8060306077957
89.8140494073232
89.8184368706827
89.8135120047532
89.7857852521777
89.77891914969
89.7793759510715
89.7631405252499
89.7540587539773
89.755480725796
89.7511045056797
89.7331749483692
89.7297017717425
89.7364971035318
89.7270843033997
89.7170548543814
89.7162087433666
89.7113105253789
89.7087277349634
89.6974717890956
89.7058416668602
89.7228202442587
89.7173644742486
89.6954821723258
89.6747266793172
89.6700532051468
89.6675689561345
89.6580512596621
89.656158690194
89.653095739914
89.6415026331385
89.6370729728457
89.6348394673924
89.6287179356181
89.6249732837406
89.6124843059611
89.6067639141435
89.5980469715675
89.5820327402974
89.5642101609696
89.5601578023321
89.5626734341502
89.5567758231804
89.5570442950819
89.5573545292234
89.5403258143089
89.5193442778113
89.5147191733626
89.5155155335594
89.5107875274754
89.5010335671302
89.4945580527333
89.4960204210481
89.5015081932455
89.4993898307268
89.4683990107144
89.4487026018242
89.4613182237795
89.4715223822612
89.4544349235266
89.4362820297967
89.4307967808662
89.4158476513549
89.4112235471024
89.417617291337
89.4085237123363
89.3872688782783
89.3807592395165
89.3902741843931
89.3864102006425
89.3718782037484
89.362717132892
89.3673811908313
89.3499911968257
89.3199588009179
89.3069490422805
89.3241303636238
89.348089723381
89.3390626654054
89.3062492817703
89.284291672042
89.2788285645267
89.2733711668336
89.2645509611771
89.2526794599714
89.2483918130801
89.2393780241487
89.2321932460592
89.2240786771441
89.2007356435516
89.1779156781383
89.1565144890345
89.1441232101035
89.1464497059824
89.1421873722268
89.1154000959897
89.0849307263499
89.0600939923149
89.0677943521319
89.066525387265
89.0416727347991
89.0144945377797
89.0029701245031
88.9814675749863
88.965488517245
88.9448989352375
88.9298173757759
88.9285956400794
88.9226228689636
88.9003384812112
88.8894733525773
88.8687197365523
88.8361949597565
88.8111666185371
88.7995214973239
88.7819045049417
88.7735486415064
88.7579148628393
88.7287667824789
88.7088311112203
88.6925785220559
88.6694334246651
88.6461152631287
88.6174821211017
88.5765659881628
88.5526789673478
88.5505437613845
88.5419522094208
88.5052154398424
88.4674159932478
88.4425450671643
88.4291279149521
88.4194031772921
88.3824747054092
88.3312221558173
88.2940324748773
88.2674888943256
88.2391933211475
88.1998034249081
88.1690791991075
88.1489166370927
88.1340696279694
88.1063546021663
88.0584316354259
88.0012432865092
87.9798279463955
87.9753725791326
87.9536508609283
87.9130645199102
87.8813408479196
87.8489816996638
87.7911726468021
87.7510344755636
87.7024159186312
87.6863056763964
87.6703733366721
87.599927718282
87.5391637700554
87.5150634827487
87.4779285362458
87.4442826309117
87.4019278033263
87.3519900018024
87.3126261528239
87.2608017440868
87.2030366795003
87.1663213561141
87.1295286730883
87.0995319135432
87.0451907135465
86.9674127179985
86.9161595896232
86.8759950095108
86.8297961613889
86.775681055984
86.7320004769431
86.6803443359245
86.606864933602
86.5546068533994
86.5089811761261
86.4356633174949
86.3634231422793
86.3033000406772
86.2417987646681
86.1884081972678
86.1321589303485
86.0784282422146
86.014037782348
85.9457426235455
85.8589500932037
85.7811910673641
85.7270562091052
85.6800471500412
85.6142518559362
85.5338182449431
85.4547095899379
85.3716982992652
85.2887023713682
85.2173144430204
85.170853884785
85.1114316557249
85.0123229848319
84.9314371084828
84.8418949173428
84.7579469316089
84.6903804734613
84.6053903827105
84.5169125633632
84.4403665319174
84.3439587661585
84.2562309823414
84.183040326562
84.1063386533479
84.0306901077397
83.9473036985781
83.8531156464359
83.7517916408905
83.6460174655303
83.5491698472664
83.4550145656898
83.3700282802747
83.2693674523974
83.1616663743335
83.073454964963
82.9839566397225
82.898440302776
82.8026447242603
82.6721762551805
82.5452759889005
82.4270429082765
82.3277094645712
82.2417266545047
82.1239546251315
81.9812265982733
81.8833715457908
81.7785981454515
81.6413553791937
81.5208480055788
81.4083157214338
81.3078005117455
81.1952558381212
81.0600507205879
80.96888075023
80.8959710530042
80.7715452646328
80.6101734916068
80.4635653158799
80.3599746328929
80.228161935532
80.0775894301028
79.9589264495367
79.8201599013835
79.6652502654456
79.5309200695536
79.4100314269004
79.2814150694661
79.1282188835307
78.9682199498887
78.8293866799604
78.7119766858673
78.576789909419
78.4079131626605
78.269451436054
78.1447204554717
78.0038432096833
77.8490127631482
77.6635110191057
77.5104628524396
77.4010803145634
77.2771810895802
77.1210712652793
76.9423316618265
76.7794506758184
76.6249983268744
76.4606514583988
76.2832269855547
76.1310776660884
75.9833525545222
75.8579637101741
75.7352862323039
75.5757474562964
75.4166732016027
75.2535244997401
75.05837513337
74.9083457532129
74.7669119770106
74.5823144751463
74.3867684877851
74.2138820776576
74.0538908041624
73.9044476909437
73.7403241613151
73.5830637028342
73.4311893827164
73.2167223676616
73.0044331339904
72.8659420815493
72.7063263464189
72.5342870801651
72.3450412987596
72.1707107683575
72.0556939904077
71.948346383486
71.7792046452393
71.5811944285761
71.3969362436022
71.2423968551416
71.0579658003282
70.8703118948312
70.7374316114638
70.5793303057065
70.3444119326006
70.1299759365752
69.9662037406799
69.8276544572745
69.6555530831067
69.472334176556
69.2811746108924
69.103305352833
68.9672947292009
68.8078975556625
68.6127182087867
68.4502196423672
68.2741222652416
68.0825317479455
67.9208234584548
67.7241540768567
67.4763681249356
67.288843998801
67.1400409029056
66.991108324886
66.8074621475259
66.6290339176601
66.4382695184795
66.2692517111183
66.1324358685804
65.9852189847911
65.8404689549237
65.6755634889558
65.4467479364881
65.2426249748476
65.077567137319
64.9108090420253
64.7123200344749
64.5157940719728
64.3462904386146
64.1749651148993
64.0193799207537
63.8722638490775
63.6628413820498
63.4434672924409
63.2547948132277
63.1276734918881
62.9591970069817
62.7537721816753
62.5745662031081
62.4074378970546
62.2175450234391
62.0542174307484
61.8517433276511
61.6906508655552
61.5173478672495
61.2840501563787
61.1027954036545
60.9907028177455
60.8300847704083
60.6210897840075
60.435919352613
60.2689968772666
60.0533919148955
59.8693292302401
59.7336824678603
59.6022879703361
59.4197636635654
59.2317733176394
59.0682363089507
58.8932898690608
58.7123410411231
58.5814304130234
58.3812057191969
58.1481500730443
58.0438265204741
57.9212885311925
57.6476257230446
57.4246889293197
57.303890040495
57.1725028008275
57.0141254205977
56.9190126437351
56.7347236029911
56.5720183705351
56.4532377977917
56.262826311159
56.1043967751566
55.9718713306377
55.7290309240738
55.518240808094
55.3779381434407
55.2356064368645
55.03757439873
54.8441312939596
54.6447830668419
54.4672017129323
54.3717036199313
54.2823176242731
54.1108142686774
53.9465388987209
53.7355479104904
53.5517098634431
53.4193765135288
53.2546470034644
53.0485015623554
52.840765656824
52.6984033869802
52.5929748704217
52.4426747470899
52.3250145318187
52.1497732143847
51.8754621285626
51.7268160249354
51.6219368262048
51.4336536187945
51.3111114403441
51.1266845290308
50.9465116123894
50.791053631619
50.6437837006367
50.5104496323699
50.3609748585324
50.2334475998934
50.194962771946
50.0388792280392
49.7640430910424
49.6377925227461
49.5192063443772
49.2946015670643
49.129412927155
49.0254500715738
48.9500549002912
48.810212235838
48.5666160609539
48.2749907332487
48.190321567353
48.1761708543679
48.0140889908294
47.8585581303172
47.7183536048646
47.5803005681759
47.4685745387137
47.2002567561563
46.9092618542648
46.7141329410493
46.6434031400066
46.5522647183303
46.3729873604408
46.1922756154516
46.012488641786
45.8791682681914
45.7743070920164
45.6691189226039
45.5758457148084
45.4035864330662
45.1221731937674
44.8459056209566
44.8098575032681
44.8142605715674
44.6159618890043
44.3991302508675
44.2776922745576
44.1321038101597
44.0480482694202
43.895730544732
43.8353878902147
43.7769221407703
43.540234709184
43.1619716762748
42.8916250333522
42.9217036042071
43.0149445335149
42.8732297480708
42.4777849456835
42.1895030380142
42.2002929524985
42.2258767128642
42.0040355826939
41.6810118632506
41.4988494030464
41.2461324159096
40.8384888548117
40.7932522006912
40.6988795790925
39.7060114727687
38.3496401512565
38.9165645842889
40.4446345479282
40.4337107787926
40.0941711718565
39.8734890051364
39.4199226332568
39.0438697808921
39.1186816773914
39.0217156142027
38.4740517326676
37.9281425437507
37.8014163009293
38.103057872928
38.0783209550363
37.6834791059116
37.65210521266
37.1459478858865
36.467986277715
36.3926683140214
36.406190935679
