3596
4000,36533379555
650,420452594757
1
128
2
99,7055612789829
99,7816837088011
99,7812157432337
99,803551492706
99,7420209513261
99,7176587727458
99,7883914601896
99,7825091073739
99,7675955002639
99,7715402629842
99,7451551763125
99,676934992172
99,6464825753702
99,7257998120714
99,7595757117454
99,7281078920233
99,7753785379444
99,7603634014464
99,7021499041288
99,6953879134964
99,7098490659774
99,7432173500615
99,7184671786672
99,7112878616309
99,7185658070959
99,7038639883738
99,7030444126297
99,6527606933175
99,6806217537099
99,7912617960988
99,755297297084
99,7140142133898
99,6739457448947
99,6657044076948
99,7215471638682
99,7996590032704
99,7314669190501
99,7046015177766
99,7528360540383
99,7268265655838
99,7306208143469
99,74264398979
99,6142837105079
99,5920919288
99,6681827191347
99,6557614333058
99,6195938206113
99,6664783672485
99,6787279862914
99,7187631404825
99,7178300828611
99,6570312951668
99,6320610944871
99,6705488946457
99,6898550786781
99,6817875072691
99,6771068220891
99,6649895143941
99,6327902643566
99,6230262499644
99,6340634876432
99,6561679000235
99,7111247415566
99,7440115223069
99,696523040976
99,6525174081642
99,664804849529
99,6881382016191
99,7499700829679
99,7596409792147
99,7176535375813
99,6894350051237
99,691122341145
99,7007618967984
99,7051910361632
99,7066336949932
99,7797580884031
99,8395645071419
99,7933143963609
99,7073525414991
99,6574958478072
99,6523303262634
99,6191641955952
99,6133670779609
99,6201246023959
99,6513553997173
99,7074013764449
99,6875082683597
99,6584658505409
99,6689632461171
99,6637803877497
99,6410363995678
99,6827495226799
99,7281920434499
99,7630993178426
99,76248243347
99,7346136880767
99,7496912800821
99,8006573561394
99,723936740772
99,7037350208886
99,7689367194464
99,761536064552
99,7689886348203
99,6964922134189
99,6783272651076
99,7144723698748
99,74867031254
99,7531842883981
99,7390963056432
99,6875239487985
99,6755385929477
99,7613855116298
99,8196479571043
99,7988410020736
99,6795047926529
99,6548525148122
99,6651140143439
99,7152779136873
99,7837817221677
99,8338916482561
99,8145361546092
99,7599681644237
99,7392149659382
99,7813927164295
99,6696410348285
99,5944083489164
99,6125381112318
99,6382627636873
99,6755053170662
99,7430255627978
99,80747968478
99,808937835349
99,7723186564488
99,7367632258453
99,7608227143832
99,7637074703121
99,752029202034
99,6381222985534
99,6486745386168
99,7552813746063
99,7929295092654
99,797424089544
99,7386169355588
99,6791070772866
99,7041992042216
99,7263500522241
99,6938156693426
99,6120364999531
99,6022095663307
99,6541981122281
99,7176912238127
99,8160014804725
99,9424691949907
100,001355819255
99,9913120646913
99,8463268554027
99,7394727392262
99,7311086935811
99,7779890870405
99,7337987335991
99,7204730630731
99,6867892006088
99,7056008084677
99,7727853630339
99,8182239161309
99,7882225849768
99,7087673427424
99,679284954986
99,7372315911938
99,8080592276771
99,7886711929853
99,7629909464116
99,707943979217
99,6367927843217
99,6362043625698
99,7222033487919
99,7295246654208
99,5996112818253
99,4995864159772
99,5161287788986
99,6285657599546
99,6826671667415
99,6145588125614
99,5520061205071
99,603851521091
99,69203518421
99,6756909212155
99,6787205342313
99,7520534556367
99,7218337942857
99,6394316651642
99,6434576356725
99,6699143865464
99,6942549423227
99,6887015564421
99,5911824877451
99,5381700324053
99,5828156872971
99,6447703391628
99,6375550814571
99,6000795146046
99,6247207626008
99,6569331775022
99,6755803585561
99,7042044131569
99,6887946847254
99,6379618641887
99,6521646714834
99,6728001870584
99,6113305716287
99,6585612315434
99,6295914508318
99,582549207955
99,5830240062632
99,5490065216386
99,4905592660341
99,4588326619301
99,4073056981502
99,4019274659506
99,484891801379
99,5475663135717
99,5335448856795
99,4812489984901
99,4626193999055
99,441508847273
99,4155895336868
99,4355321710404
99,4578794650779
99,4661838477666
99,4813771939395
99,531513984204
99,565901632755
99,5334474803762
99,4349609721268
99,3615555503977
99,3577384831343
99,3977782506241
99,4103816132764
99,4445361891167
99,4413938059719
99,3989814347783
99,4011154771916
99,4323196134002
99,4777160771657
99,4591863758971
99,3456931087448
99,3960121137737
99,403695311797
99,2924437963651
99,2515520587498
99,3028377480574
99,3248827196677
99,3378318041601
99,3306201689871
99,3382290174294
99,3893001007585
99,3663797269978
99,2916137923825
99,3283882917615
99,3192156038376
99,36339857953
99,5026171604418
99,4517704670061
99,4657405716929
99,5412257749628
99,4994682567227
99,4137915632278
99,3150397709068
99,377804781693
99,4942161247639
99,5633077099659
99,5229397035296
99,3605337758878
99,2077102646375
99,2561949409668
99,2209995309871
99,0948652736344
99,1670289586132
99,2781630489625
99,4002342372513
99,3769913486358
99,2639308647745
99,2498249335007
99,1789600203144
99,1292288516302
99,0394138256013
98,9918779661633
98,989951321483
99,0120480755826
98,9847817194312
99,0255339640005
99,031086638265
98,9667774870649
98,8898208873244
98,7679279401728
98,7360008162696
98,7502853026052
98,7504345295584
98,7667480327346
98,7209837825042
98,7099521038556
98,6928450824757
98,6036309495653
98,5974383428718
98,6607015101519
98,6942072283366
98,6042922665481
98,4420219079165
98,391600029337
98,3757642528318
98,3187047752424
98,3337101464312
98,2793410158881
98,1530741861633
98,1003306406846
98,0406527662828
97,9693740702542
97,9875215386535
97,9147790586345
97,8379050258208
97,7834920564993
97,6968213972594
97,5710833012857
97,4916939815751
97,465014360151
97,4215669379809
97,3595437949241
97,2947356422039
97,1982282832704
97,131697541044
97,1292261178017
97,0382576188838
96,8855990702744
96,773884679431
96,6105088191872
96,4101331217671
96,2359962533669
96,1543755813956
96,1286882120385
95,9991439887739
95,805592339719
95,6985942322197
95,6072798141879
95,4289844343489
95,3060798549846
95,2187146198114
95,0414834018369
94,7923812084802
94,6729905049491
94,6293815591449
94,5519909040057
94,255523072062
93,9799192167963
93,8235348131263
93,6075135420026
93,3876094623411
93,2052794665348
93,0048237424359
92,8146461473019
92,6457200215621
92,5021515382573
92,3525118990748
92,1153736209532
91,9043228339544
91,8097869505627
91,6819591949926
91,4959853991851
91,1956070609083
90,9371529657596
90,8251597183857
90,678891270729
90,4218484718418
90,2099767262491
90,1340027336581
90,0240092244415
89,8077895096972
89,5777056799849
89,3592875138386
89,2021122684447
89,0017102938459
88,7531137849625
88,5196321009286
88,3142404407335
88,101391098132
87,945608315283
87,8208965740595
87,6267314506035
87,3967067723239
87,2616361424122
87,1942897910303
87,0693196729761
86,8360449413535
86,6333677382851
86,4313548653472
86,2674985991387
86,1304724706831
86,0647914540338
85,9724212195688
85,7799070809294
85,5855589009297
85,4440356782439
85,2154837332858
85,0033789987813
84,8915969139547
84,7800302817416
84,6070234768532
84,4125403931304
84,353919777395
84,3075699378729
84,0782770551455
83,9147661055233
83,8022760357005
83,6879421264362
83,6658688609753
83,4575840865767
83,173637511295
83,0870827305261
82,9788888586997
82,8253887870629
82,7297275155525
82,6081539948344
82,4350525840744
82,2331861786927
82,074385364368
81,8777685313395
81,6867934667045
81,6412301831454
81,5470716221841
81,3758189730386
81,1902999194674
81,0137323695398
80,8963436984545
80,8427203851323
80,7435483804799
80,5985907437808
80,4259783022441
80,2967447768182
80,0931499514635
79,9049852139095
79,8000824040467
79,6635381149354
79,5354638955274
79,4171533504743
79,256675396912
79,1022900770779
78,9555052062962
78,7714772863791
78,5762062444593
78,4548004056496
78,3178856961615
78,201653668603
78,0661049251164
77,959389710525
77,8430808342266
77,6426330128861
77,4647718484762
77,3428030592351
77,1726806594698
76,9436097577418
76,6790741080273
76,4886682709919
76,3934455707594
76,2926469512254
76,1391461481771
76,0023469998653
75,9947127590732
75,9783616840903
75,7869991776246
75,5418532661442
75,3353925281677
75,136033855934
74,9947724039092
74,8791757979808
74,675679138131
74,4598647459515
74,3251662384004
74,2338689347731
74,1136617621783
73,9712500511973
73,7674495974644
73,6121328167554
73,4753298925667
73,2179747731579
72,9705000238835
72,8572695126322
72,779596768346
72,6406320458321
72,4353478104405
72,2477153065526
72,0343084677735
71,9004319485763
71,8462195127738
71,7068349456952
71,4670256071509
71,2399941167205
71,1341335019478
71,0183887420187
70,8422350820832
70,6990423890453
70,5298495387404
70,3884925536719
70,2520014756534
70,0092449378192
69,7477061692508
69,7047795396351
69,6807213278872
69,536578586605
69,3592207113324
69,1270354953149
68,8803740616324
68,7087749420033
68,5323421106058
68,4295401175575
68,37016754692
68,2855490462193
68,1326715504301
67,9226028421869
67,7920323100442
67,6041867959704
67,2789556709451
67,0910314509886
66,946212250818
66,7804339491992
66,7046276210216
66,6628482951064
66,5205992295767
66,3388520645597
66,1440815519034
65,9732478943873
65,7929469560218
65,6086314127754
65,4111733919188
65,3672949246805
65,2433100018502
65,0522893894293
64,9258860871822
64,7893213897816
64,5910877826705
64,3433736077696
64,1557668059832
64,1140973467356
63,9742480188291
63,8002706894097
63,6631462868726
63,5618646572456
63,4708339688801
63,3103302420905
63,0935511026089
62,8782121160943
62,7398428289843
62,6399260284242
62,4466556962317
62,2609650811994
62,1677944076385
62,0648022224516
61,8453877671033
61,6373434325302
61,4930228700566
61,3296375868266
61,1638934421934
61,0957469148511
60,9400203632165
60,7835075992317
60,7172127792815
60,6348076530046
60,4938394050794
60,3338430535817
60,1141877304819
59,8612331414992
59,6162059761366
59,4122809495783
59,2424351152667
59,0881378208114
58,995710512349
58,9339750395078
58,7516696790329
58,5293369754997
58,3578974556069
58,2481411527304
58,1439766338714
58,0018679218551
57,8491855213015
57,6862649013857
57,5417819548319
57,4509030711141
57,2951909803637
57,1514475293755
57,0516367318714
56,9658749396484
56,7846905984588
56,555808604622
56,3729136013047
56,243574802784
56,1990856796606
56,1311331306319
55,9734804198725
55,8156684697802
55,7101993493867
55,6003812454928
55,4213040359572
55,3112860181678
55,1804691844282
54,9890966996414
54,7716239203087
54,559473112103
54,4334362523969
54,3261960065498
54,1272847391794
53,9164303650232
53,7682380060869
53,6575272675823
53,5258554175618
53,3737493998374
53,1884797218539
53,0379949844837
52,9490562149911
52,9423608611739
52,8873480399553
52,7026005275135
52,5334263813147
52,4372702067969
52,3289825203458
52,2378312694667
52,1238477812837
51,9923563069219
51,903541376307
51,8134564159595
51,6135912327274
51,4424551201193
51,3825803238417
51,2929465247783
51,0960257464017
50,9412281711339
50,885512567168
50,8260771224819
50,6852342317514
50,5987615350168
50,5999616783937
50,5671665557939
50,3741565478866
50,1545318003238
49,9868982546254
49,7946267351077
49,6847283145605
49,6782295361529
49,6091955259694
49,5361003426073
49,4799099880126
49,3653916092133
49,1988063931102
49,0643113284981
48,9580875267533
48,8312722338047
48,7674657523333
48,7519937094116
48,6548934459652
48,5664838824176
48,5502574647679
48,5639906597428
48,5168462352393
48,4380884297661
48,2987670824213
48,1918558301648
48,1864508239508
48,1671990255898
48,0608677690447
47,9485895450498
47,8946805768291
47,8692793092369
47,8187642934254
47,8070131596922
47,8025353501099
47,7220560300231
47,6147696742163
47,5207785154517
47,3790806868527
47,2581019184763
47,1832431898688
47,1420905991265
47,0803780799606
47,0625760001927
47,0744610350961
47,0134221978909
46,9454374315712
46,9768252250093
46,982682855141
46,9373334414423
46,874708278626
46,846486624549
46,8551269890199
46,8749147197012
46,8939972596609
46,8733521008267
46,7862482936209
46,6878243876134
46,6459561353805
46,6370749992362
46,6172127986577
46,6030344805158
46,6048679990723
46,6131839710777
46,5840799229575
46,5742610039701
46,6050849717338
46,5751635582254
46,4823990474621
46,3955395454923
46,3237536828921
46,2831348881721
46,2808612248524
46,2964057708619
46,2678125408567
46,2367739085264
46,2816310418513
46,3917042311786
46,4596753957876
46,4496299209008
46,4256936150735
46,4252379598632
46,399328389263
46,3410149223556
46,2698154540406
46,2453953370264
46,2704290152905
46,2800858366945
46,2683451603921
46,2757132055305
46,2890792889665
46,3057527200655
46,3263387979359
46,3294248242429
46,2939650203793
46,283044922303
46,2876489846115
46,2903419820856
46,3198012018328
46,3389769844938
46,3332398302936
46,3521536790326
46,3653629598836
46,3742952377154
46,3323142637503
46,2560267779509
46,1998301319568
46,1480670155127
46,1368471764989
46,1790304004869
46,1909761618027
46,1784295627754
46,2063386478968
46,2313648237502
46,2262557648035
46,2462567672833
46,265062794374
46,2461503545693
46,1977658805112
46,1258105836545
46,0871051193997
46,1183109954165
46,0962701705814
46,0937470599024
46,1888834350846
46,2515226179584
46,253535068589
46,2678212120655
46,2522795867637
46,2148892234405
46,2105132558527
46,1952211504522
46,194536895742
46,2224295327698
46,2309678248282
46,2655962455075
46,2895832330382
46,2879969080197
46,2356293931095
46,1668776535894
46,1530666625846
46,183003829447
46,1528472129931
46,0933319399648
46,1028791160853
46,1218540351533
46,1020254925836
46,1184683207776
46,149894159135
46,1486620004333
46,162782821135
46,1881725115882
46,1517573656807
46,0964918213734
46,1336979640093
46,209479603389
46,2462571431394
46,2635724840139
46,2332319006805
46,2012750484529
46,2091344712041
46,2312099160681
46,2476271723688
46,2590367543448
46,2804081163723
46,3278787909172
46,3616276654641
46,3434932456866
46,2819650436172
46,2562064729591
46,3054999404808
46,3448291187352
46,3474721956883
46,3746115669105
46,3836574730341
46,4358520582071
46,5471864645911
46,5979646106269
46,5936250536318
46,6172665485401
46,6870637841731
46,7109545285995
46,6746222367939
46,6776823494542
46,7017237419709
46,7032333424419
46,6893795896188
46,7343294781112
46,8741033983015
46,9548661699476
46,9593055500082
47,0072669494601
47,0750745610508
47,1527103414875
47,2387579959108
47,3014974090251
47,3258804274625
47,3792737713176
47,4724620293911
47,5034820696687
47,5403373095996
47,6401526682832
47,7075279146038
47,7457250242293
47,7977997291546
47,8621852760221
47,9551865860274
48,0670675622262
48,1616665720371
48,2738359377478
48,3522389940317
48,3835767249981
48,4553048000311
48,5763525066984
48,6823191975564
48,7664093168801
48,8524322450291
48,9289602096999
49,0192012335561
49,1336083076518
49,2608149153983
49,3859734960387
49,4838555028397
49,5744488182554
49,7205615503123
49,8800415530304
49,9667818977931
50,0475574748893
50,1637266522044
50,2712211979835
50,396222682966
50,548780363287
50,6589352471115
50,7394013356433
50,8828762925289
51,0576592083136
51,2292703888433
51,3651016904143
51,4601368351334
51,5965579071635
51,764752388852
51,8719988947681
51,9581779848831
52,099524360437
52,2649745220917
52,4303711594209
52,5943064350096
52,7609719254186
52,9297963197792
53,0669884069942
53,1906423939131
53,3217871060391
53,4646498589332
53,6475156640868
53,8753368395477
54,0596244020061
54,201022906007
54,3690255019846
54,5031535122229
54,6463295409059
54,8424758881833
55,0388112441198
55,2184844196866
55,359610398052
55,5140397281403
55,7414696675497
55,9566249068985
56,116701227645
56,2864990014332
56,4405160216202
56,5519513310451
56,6769013252969
56,8455394477547
57,060339824887
57,2606135856943
57,4357919540538
57,6506048851189
57,8318507092317
57,9652007099854
58,1567887880789
58,4009605709608
58,6334883449335
58,8383431574929
58,9791512570434
59,0895344027927
59,2158326474878
59,4289164786635
59,7049732381857
59,8912440583143
60,026026624703
60,2338539275609
60,4907319847191
60,7203023247792
60,9331896708557
61,1159623349227
61,2715498030046
61,4491461919344
61,6465261822108
61,8628612389126
62,0885819848967
62,2755425824253
62,4842225046888
62,715745485368
62,9092054738607
63,0950236479989
63,2813582761637
63,4431324987205
63,6094989231973
63,8055177677498
63,9964688587892
64,16329399771
64,3344108882536
64,5153118981753
64,7189988994006
64,992007838698
65,221021594855
65,3500752216917
65,5395163343786
65,7653826820837
65,9601835742031
66,2021595125012
66,4150536227798
66,5602613649295
66,7496154407216
66,9955998267158
67,2069532277356
67,3889986861397
67,5632458990767
67,7450865576099
67,922242027617
68,1396709437998
68,3890535054428
68,5662017607976
68,7512348825165
68,9898664857472
69,1691835664538
69,3128705437885
69,4883801939773
69,6836092528946
69,882402321961
70,0906109764033
70,3097277204719
70,4878979074612
70,6089485171555
70,7969213769526
71,0275689773915
71,2181374216783
71,3838690119327
71,5444140939316
71,7107922889434
71,8794340629947
72,0810006430958
72,2703406747359
72,4246357323801
72,6175183070635
72,8071738066984
72,9911127009108
73,1901864502157
73,4008342954684
73,617879693828
73,7979899236877
73,917233147646
74,057637909118
74,2350273800201
74,4172934579951
74,5888869693881
74,7739210302661
74,9670734960022
75,1391438977773
75,3260756799384
75,506785253143
75,6460142024794
75,7933602368114
75,983954887907
76,1421040285993
76,25882600112
76,4685526803267
76,7127201800936
76,8649700318402
76,9822402387932
77,1322192948858
77,30459742223
77,4817240614999
77,6506438085524
77,7875668238655
77,9172701008211
78,1043015262042
78,2510566534293
78,3701441398445
78,5758860613823
78,7619319259548
78,8339386507653
78,9230341079281
79,1482963261691
79,3653563966086
79,5101779341943
79,6252247152315
79,7443601191242
79,8847465838199
80,0126758984228
80,1289520561224
80,2919331640676
80,4825347556073
80,6386600358795
80,7728619365051
80,91183367762
81,0693603492243
81,2399599323019
81,3980901643015
81,5140775273023
81,6284802777159
81,7787669102584
81,9184993532119
82,0539261027978
82,2055540256659
82,3072342949786
82,4470218977251
82,6147629864192
82,7125999083189
82,7899823256191
82,891883308474
83,0378418482612
83,1889678662104
83,3176815923448
83,4289657907918
83,5554757629634
83,6833513712024
83,8136508994504
83,931637258766
84,0539335902504
84,1979459190323
84,3289033916767
84,4497571789238
84,5665606325487
84,6751852353502
84,780422875412
84,8881576440539
84,976579417175
85,0466410028083
85,1567917675278
85,2995727371378
85,4077353454249
85,5205191154548
85,6466538226792
85,7753969950759
85,878350912659
85,9608573967332
86,0900724577255
86,2136959886131
86,278600054131
86,3575325524562
86,4805833011747
86,5756177415417
86,6579205612596
86,7559181272614
86,8577710169856
86,9661891673034
87,0511141333549
87,1114476399489
87,1899187720989
87,2962030727416
87,393494372702
87,4805303239528
87,566931055966
87,6325757604944
87,709991115204
87,8013628110945
87,8926641201819
87,970307248567
88,0605256907076
88,1398190943763
88,2067180391524
88,2650510853534
88,3418504073313
88,4526696863237
88,5521006542719
88,6262822757133
88,7022589944941
88,73860443626
88,7868688286258
88,8908380630459
88,9850644315039
89,0453040749714
89,1510755230131
89,2536494773684
89,3084769846674
89,365720874241
89,4416985069551
89,5017158470241
89,562194322198
89,6221153573323
89,6677369646096
89,7211116536217
89,8039679790638
89,9158562248812
89,9854763140121
90,0113179040029
90,0949261190509
90,1987791245852
90,2373739736813
90,2945952650585
90,3492182240426
90,396916225874
90,4417573519156
90,512277396772
90,5909168067802
90,628733517755
90,6403614064935
90,7079301366528
90,7945940042659
90,815641305843
90,9023753403566
91,0280116334801
91,0895240187066
91,1151098584146
91,1465170877971
91,2367221792366
91,3147600234051
91,332316134298
91,357959910154
91,4513976955536
91,5448488054899
91,5878234599891
91,6428462094448
91,7088331210356
91,7736705733965
91,8837810176085
92,0294420117939
92,0947580851701
92,0926785509343
92,1304805827513
92,1789143150909
92,2567958691604
92,3668597789256
92,4254791506525
92,4669815370912
92,5309698401569
92,5858304868071
92,6508043727271
92,7239135832439
92,7596972778939
92,7831289300629
92,8259724803292
92,8806986988472
92,9386147230063
92,9977459811917
93,0506733472975
93,1219130762969
93,1609149695552
93,1826072959256
93,2322864961761
93,3027927171607
93,340301897781
93,3544763076522
93,3982952924578
93,4355497070163
93,4772441827695
93,5436817893649
93,6085376708603
93,6638422996203
93,6979848902499
93,7175655714849
93,7352194750266
93,7730917067877
93,8344568324206
93,8626860585031
93,8973396324271
93,9475040804261
93,9688176010446
94,0251959909023
94,1141246983164
94,1711696668375
94,20970732779
94,2548129819753
94,3026697929294
94,335472712381
94,3789134969274
94,4169279702805
94,4610152282967
94,5372216187224
94,5647360100118
94,567842700306
94,6172084099935
94,693727052893
94,7373018474203
94,752910113227
94,7894968945241
94,8360253369192
94,8753940761131
94,9255505011071
94,9784597810927
95,039232370401
95,0666861144224
95,0667519133787
95,1275035905168
95,1930033040783
95,213578942735
95,2425545403107
95,2780657519167
95,3288713796622
95,3760279016562
95,411465231647
95,4354515580721
95,4562236589568
95,4817651436375
95,5067572829569
95,5479428579584
95,6047138151798
95,6570150347111
95,7000271035875
95,7489853624664
95,8023014933105
95,8105561817006
95,8139493271338
95,8352454001685
95,8570044577373
95,8909626948836
95,9571358308178
96,0058807472004
95,9887514097962
95,9758505347002
96,0361134514838
96,1169187662972
96,1386148369578
96,1481644087313
96,1778030521631
96,1780932144109
96,1946348147179
96,2191310732151
96,2226114485153
96,25235143623
96,2932743316818
96,3313306651874
96,3566679657487
96,3576446745618
96,3541149322704
96,3620211392315
96,4185918680945
96,5128505258361
96,5353665151082
96,5274846309253
96,5188892306249
96,5131364322564
96,5471960285373
96,5987714512162
96,636056076058
96,656660083053
96,6902102935525
96,7178139793107
96,7303510417986
96,7520900681602
96,7554023089706
96,7832665867527
96,8187334860649
96,8114292591636
96,8349941028068
96,8609462322168
96,8944224313108
96,9138950517985
96,911693425029
96,9425891296872
96,9867501277265
96,9972750259055
96,9945667135298
97,0408229749931
97,0740225469775
97,0642879168671
97,0810194497454
97,0884675448531
97,0779384711884
97,1002773529785
97,1496396475784
97,1582183865276
97,1509954411366
97,142394581838
97,1587621775547
97,2222129672313
97,2533877407388
97,2731326105415
97,3116907073478
97,3362479423357
97,3395279593526
97,3420810828801
97,3497860880087
97,3637354606742
97,3790702143367
97,3849780334799
97,3796266447191
97,3938107963282
97,4216427911904
97,4451981109395
97,4602913813005
97,4605600708664
97,4868397495016
97,5073705442812
97,4844394523112
97,5005311035195
97,5177282863502
97,5100522431697
97,5155810726604
97,5199622743203
97,5448952479951
97,5704754639149
97,5866737793037
97,6220263451848
97,666189968177
97,6545353088958
97,6634321228185
97,6871584043596
97,6892199492181
97,6986114187819
97,7114621113014
97,7230122482733
97,7074469477403
97,7180865643477
97,771909450737
97,7735363492523
97,7451763084666
97,7534189677788
97,7811348116683
97,8081585081048
97,8374944582284
97,8419896306208
97,8374794879149
97,824214989903
97,8145207078281
97,8261562891276
97,8636258410198
97,8961601697431
97,9245245596904
97,9244017134202
97,9227303456455
97,922468573508
97,9120204072815
97,9338304681783
97,9712932930013
97,9717918253131
97,9582601018879
97,9789058811427
97,9784628082398
97,9874479961185
98,0174990309182
98,0260112316102
98,0252335649374
98,0455226345884
98,047154150709
98,006785492103
98,0173724722727
98,0355528599228
98,0394250762778
98,0900616106126
98,1215414318279
98,0916133929205
98,083715606863
98,1333083463642
98,1385720321183
98,0999782009637
98,0986093667358
98,1204533988023
98,1496902724972
98,1650897318367
98,1751300616818
98,1720888215428
98,1712032992502
98,1772301898566
98,1766636925962
98,2054077941742
98,2342136683398
98,2186482602454
98,2003144749838
98,2204120111632
98,2331478421077
98,229404854824
98,2399017239443
98,2236132999524
98,2141623443925
98,2340278418255
98,2609683140793
98,2660077106786
98,2721887111951
98,2896432743044
98,2792598213168
98,2857801778937
98,304567464685
98,2930278275153
98,2850629718128
98,3216961240232
98,3399483224073
98,3244115875323
98,3085876460795
98,3452468064319
98,385363711001
98,3960216551203
98,3940247126231
98,4030062699409
98,3972666636213
98,3857358721996
98,3585103202321
98,3393482359786
98,3720755015643
98,4014125397313
98,3853818075032
98,3911695438993
98,4007069613262
98,3833566807639
98,3842583658002
98,3988161510322
98,4094704309382
98,4298600589497
98,4581953702827
98,4579280446295
98,4362778843864
98,438361603312
98,4441309446029
98,4342550798933
98,474283849013
98,5170019558395
98,5274191769034
98,4855851838684
98,4782740433023
98,4833970994765
98,5017066692887
98,5405459083215
98,5504444869522
98,5379799817673
98,5259825688053
98,5295440450882
98,5510982998967
98,5546367160931
98,5873240737021
98,6284831702507
98,6459345903112
98,619019687565
98,6097614475768
98,6304300148254
98,6202521858858
98,638675618837
98,677416742456
98,7013586708381
98,6745630044061
98,6835760419934
98,7055239027201
98,6765608932956
98,66664615767
98,6935120775098
98,7186389583962
98,7300516851779
98,7200277924312
98,7055958347563
98,7384099238866
98,8041820069293
98,8010638457903
98,7512521307699
98,7668151563902
98,8013696870434
98,7982753381943
98,8043530843612
98,8170268163442
98,8088066585224
98,8121058062182
98,8281583606378
98,8721071052358
98,8861985008759
98,8580763961544
98,8571888968446
98,832621773091
98,7758285753434
98,7342292023054
98,8020180104582
98,9078902361271
98,9453114265925
98,9119123390681
98,8263672563557
98,802074485099
98,8686192398485
98,9045526354539
98,9315203265494
98,9253899540153
98,9618461433107
98,9915590494825
98,9526082811884
98,9207349925893
98,927881516022
98,9461339836514
98,9642313156289
98,9613268437602
98,9567862610448
98,9315374489515
98,9180309783616
98,9623788525421
99,0008596514324
98,9514915228296
98,9165337490305
98,9434680637601
98,9632259983366
99,0320857827603
99,0373867885389
98,9600076011742
98,9047370533253
98,9152671152438
98,9536426240339
98,9592581433511
98,9864220265617
99,0051421782192
99,0087735117257
98,9873047443079
98,9941212555108
98,9353448096547
98,8953519575822
98,962506263159
98,9359456753734
98,9042980262396
98,9346307173473
98,9629271872383
98,9562564731082
98,9604791849529
98,9596383584533
98,9398687681603
98,9057132863597
98,942567447059
98,9916806862007
99,0219827494168
99,015885440733
99,0084418832125
99,0139910571341
98,9848440713371
98,9497649343528
98,9955796393311
99,0235924768472
99,0313738235617
99,0359639658653
98,9897190732632
98,9414997156678
98,8994052409954
98,9313909050465
99,0013861616712
99,0409091632662
99,0257815855913
98,9696067475523
98,9470674185123
98,9817801531626
98,9552925669357
98,945806028645
98,9728379046859
98,9340026023722
98,9117855092522
98,8847722260075
98,8905749142189
98,9474543112
98,9960308817896
99,0046766694763
98,9558328126039
98,9762254779588
99,0165924070316
98,9636761711654
98,9665823326291
98,9969904185278
98,9175448504886
98,8881843292583
98,8885713244867
98,8471631966969
98,8861484624082
98,9436261999873
98,9093101273985
98,8850339823524
98,875877517719
98,8541033807548
98,8739019006042
98,8214016898791
98,819567609473
98,8716352524194
98,8808350313685
98,9198381848415
98,9083917530895
98,8586668244927
98,8134587580247
98,8083834824393
98,8180371277473
98,7869887617352
98,7973695084704
98,8603789909943
98,8713608747612
98,8654396879156
98,8739013600959
98,8264658549904
98,7824911954717
98,7504953309512
98,7329931316383
98,7370431210342
98,7479369859409
98,7503697332357
98,8028730207695
98,8286696369809
98,7999709734876
98,7719503537162
98,766388066823
98,770720586252
98,710154528903
98,6829594876335
98,6608343682039
98,62026101972
98,6787272079094
98,7089561031517
98,6916789411994
98,6276746105074
98,5938856402619
98,6510239135234
98,705773904505
98,6328516694277
98,5724056760697
98,6433842575418
98,6218756062991
98,6191714729259
98,6778165294606
98,7218623709036
98,6779306273664
98,638148213952
98,6436164664058
98,6631029258958
98,6356618155648
98,6347596564646
98,6319541128685
98,5886844287549
98,5850352519573
98,5410077255055
98,5181726834688
98,5324888126945
98,5344583825204
98,5679193435128
98,5947667271534
98,6168400912804
98,5967824788287
98,5641724203048
98,5445988903398
98,4899623150251
98,4879602204196
98,5896133683273
98,5886888961866
98,4922178315954
98,463875644927
98,5402334206149
98,574604106225
98,5850048170469
98,5921363454011
98,4898689859549
98,4721481789691
98,4844732975354
98,4464391376133
98,4359781303192
98,4368978524115
98,4214162203073
98,4062362174516
98,344186832637
98,3480222759108
98,4315637061157
98,4480935943988
98,3950720856338
98,3439329275164
98,345605460056
98,3402273892046
98,3637567347269
98,4028092094077
98,3808171418884
98,3153182768717
98,2965422306811
98,304540158977
98,3155497188725
98,3420314868624
98,2898860334933
98,23505617379
98,2601451738579
98,2337110687086
98,2266029611556
98,2651225580278
98,2562540207623
98,2273676326163
98,189409670854
98,1798241817832
98,1963357624896
98,1624995367497
98,1457929376026
98,1297515906827
98,1182260285047
98,110361123849
98,0718706671959
98,0811532229524
98,1221649634224
98,13687757823
98,1278823032042
98,0833603884098
98,0351417053344
98,0290429151997
98,05010897255
98,0459325203986
98,0015965138902
97,9781108754259
97,9882421861435
98,0167903312326
97,9773784044881
97,9311397825472
97,94102940987
97,9454752281317
97,9686048604511
97,9598803920405
97,9403025537341
97,9455637555314
97,9702820961804
97,9865840016123
97,9686999350826
97,9501471128458
97,9711031841116
98,0133235096254
98,0504899787521
98,0414955796496
98,0630529418011
98,0784881258033
98,0909582585641
98,0712191116381
98,0273872112209
98,0042943853746
97,9449067845404
97,8555704804598
97,8598371896652
97,8234204379701
97,8217278116291
97,8215223172848
97,7477890497176
97,6577167170752
97,6631737352341
97,6638603052646
97,5647527677902
97,5305054069241
97,5968293292573
97,6212247449268
97,6341674633798
97,620489485
97,5705258308956
97,5208039771303
97,5946981625224
97,6208114087871
97,6565663839125
97,6314812411213
97,6130808282258
97,5895817503883
97,5770505100814
97,4972652257844
97,5317746771621
97,5556789873869
97,5375799488434
97,5193007117607
97,5655149527444
97,4982467599981
97,4613240897939
97,3966727734093
97,4133564548522
97,4159327091452
97,4209034962412
97,3468840876742
97,3021121129104
97,2675093000035
97,2915366471142
97,2741081025685
97,3216614999257
97,27401809766
97,2991832319684
97,3131882135924
97,2611460021608
97,3067707356114
97,3714506631545
97,4185851022319
97,350657035926
97,3564067253107
97,3297273780765
97,3484718553584
97,3616076038049
97,3597070798064
97,3051122579902
97,2846926724425
97,330471513132
97,3556477551239
97,3592997285216
97,3339275245808
97,3064044714076
97,2973076065152
97,3319129800007
97,3858849621488
97,3778452898815
97,357709069383
97,3345839437438
97,3120655179687
97,3254671885865
97,33251331206
97,3178949814424
97,3806985615664
97,3560893637757
97,3338998744738
97,3750963596083
97,4077105684099
97,4327711287508
97,43348943185
97,4386298688724
97,4638689021351
97,4667904533967
97,5201128163301
97,507189578519
97,4639185405901
97,4838661602053
97,5001843412275
97,567768702545
97,6134819785506
97,5519814227698
97,5193426315121
97,5652592193776
97,5813548995845
97,631840017488
97,6788257468556
97,7285034104359
97,6715715988262
97,5636771129005
97,617648333034
97,6958648403802
97,7051706680084
97,6466187760963
97,5600510945832
97,5263074314695
97,5655888593842
97,5829643692845
97,5629694530214
97,5860113754786
97,7206373356755
97,8074509071651
97,7972980600906
97,8076518432378
97,8714222694676
97,8266098828165
97,7515353399912
97,6925462290849
97,7684876687611
97,7960613033708
97,7398624700873
97,7448690035848
97,7674298669422
97,8111041212295
97,8232030971399
97,8151490015088
97,739557781448
97,6600649731353
97,7254672083515
97,8061490020295
97,787179313502
97,7875551202503
97,8789561043825
97,8667994529595
97,8130293142273
97,7246110466253
97,6094434113194
97,7212973175217
97,8025337929686
97,8054303479544
97,8959240491363
97,9633335120067
98,0252306487356
98,0229784895711
97,9290416697893
97,8462054418618
97,8532212864065
97,987429668507
97,921118829307
97,8875948541912
98,0190723155331
97,8636287658713
97,7960133327917
97,8468907546493
97,8848890710251
97,9799415387685
98,0942041803254
98,10473188414
98,1511790313011
98,1495058601922
97,9028589721873
97,8228697200957
97,9728354475785
98,0956857776704
98,1701326681603
97,9906547796855
97,8694844859666
97,9977132038359
98,1473294340463
98,1261015852122
98,1696588221728
98,1776096325637
98,0188020797096
97,93709862011
98,0624777318299
98,2299528444642
98,3046096424433
98,3512003548006
98,2611113144738
98,1744874185206
98,2751503034768
98,3491452273849
98,4670094414103
98,5510356870883
98,4019758549654
98,207970760768
98,3461491185779
98,4989121994473
98,5202850873426
98,4033312537588
98,2597677249698
98,3486552873889
98,4256577304391
98,4363938154056
98,6643437671727
98,690783881602
98,389683251322
98,4102259660531
98,591781312087
98,3201210115733
98,3390706484566
98,5292361160179
98,3196614838253
98,194964369435
98,3396592381559
98,5253073091654
98,5590024840518
98,4703646521786
98,5409824322796
98,7948076308145
99,0368970934622
98,9208330920306
98,9079314961529
98,9889316108814
98,7765285137251
98,7761543781092
99,1459693318613
99,3682343445379
99,5264532489017
99,4882840176178
99,4254093457683
99,0434201216767
98,749258804417
98,5118296829639
98,24063724155
98,1664776996035
98,1323404314333
97,922917105549
97,8641875439504
97,9384343331609
98,0931573025196
98,1000743884525
97,8806637759022
97,6173934685992
97,6001308326948
97,6299233254133
97,569967152108
97,437151375699
97,3866146499664
97,2414213771248
97,1893662207579
97,293655179663
97,1645437217094
97,0466955062654
97,0927400226914
97,036002925716
96,9440287460318
96,8313962343051
96,7635917510251
96,7822012509434
96,760721909956
96,58229887645
96,5231303404705
96,4617200292891
96,4453348624658
96,4417662529804
96,3506373602346
96,2572387421622
96,2543251011818
96,2864802456906
96,3569026838234
96,3786950673268
96,418700611517
96,4037082314646
96,3050880508477
96,2636851642618
96,2614151673538
96,2726837800197
96,2259498906776
96,1781119824852
96,2037935120743
96,2778633344538
96,354998872749
96,2846906596404
96,2673916719635
96,3442996969559
96,3870900216288
96,3720785116701
96,3655819610709
96,3705961002334
96,386731172561
96,4281282277728
96,4472309205921
96,4056662380093
96,4698342974437
96,4836596447465
96,430352025968
96,4162252467966
96,3892066533322
96,2881439853437
96,3295060843114
96,4500904107825
96,4135000331518
96,3437069118571
96,2934488528121
96,3416878879362
96,3477224455371
96,2643662504828
96,3606663516234
96,4059128625446
96,4271470411041
96,5427790178486
96,6584122474052
96,6348460637023
96,5804313411486
96,4772978295013
96,5144648175434
96,5565042085137
96,6454814855006
96,8291697419117
96,751360477222
96,6146974473518
96,7335344922493
96,8636010175067
96,9258369040942
96,7615990790672
96,7254171799176
96,8624192946214
96,9127512955825
96,815535491668
96,8451269606305
96,9281760468302
97,012470805342
97,1346685159536
97,2302701461794
97,0984270864462
96,9917315295231
97,0960863421835
97,142863079199
97,0909128342675
97,1092383287388
97,221318102429
97,3599495227375
97,3763228603274
97,4921010868805
97,6972371939564
97,900217285256
97,9225502363537
97,8394559062809
97,9297805396922
98,0599258994827
97,9443425176742
97,8314068060604
98,0661959272005
98,2805037485724
98,3063460400355
98,210998978602
98,2337663563582
98,253212318833
98,4080972935406
98,4589111655696
98,5232588866446
98,5649941905099
98,6260042002172
98,5142273981385
98,4744020762945
98,6434131523611
98,6898864216606
98,7005010939204
98,656398148481
98,6823079383069
98,7412235934186
98,9104781189312
98,8045896951496
98,7103868721946
98,7107921070005
98,6687903467011
98,6365693688671
98,6142595346869
98,7468274903402
99,0073622734091
98,6962407718556
98,5452967137822
98,7793365345011
98,8546614374341
98,7722532195499
98,6654554104373
98,5168869328206
98,6257450090318
98,7729095806179
98,8551418516074
98,8187482291388
98,5087724997639
98,4499500744975
98,6391449070308
98,5331633481034
98,4941173089321
98,610123931605
98,4056826368449
98,1231052422401
98,3032780193827
98,529024292557
98,5007121574912
98,4090717574516
98,4494012044771
98,3311556393812
98,3140136633011
98,5324813159107
98,4677347328604
98,3259910304538
98,5022707623882
98,6230718353174
98,5692754636751
98,5669042449115
98,6738238841608
98,7022956031382
98,647876901795
98,7729773085416
98,8455597348638
98,7410351338738
98,7602560022161
98,8891226523972
98,9828609781403
98,9522335541966
98,999195854524
98,9684566139749
98,879360427278
98,9463569998103
98,9690877568365
98,9322397140262
98,8697234669273
98,9184020029564
99,0052307347779
98,8678235737691
98,5183263570755
98,3849523155967
98,6105402618108
98,6635654232637
98,697924390222
98,580482981111
98,5721347629381
98,6508911409517
98,5022594313706
98,362677525587
98,3956862848515
98,2693142639869
98,2311926281518
98,1782359487844
98,0865685610659
98,0207145855687
98,0599216353654
98,0774505718937
98,1585911895828
98,2336117930068
98,1463550825448
98,044808755293
98,0282144227669
98,0841315504775
98,0696836784914
97,9191471738332
97,8024308347029
97,7305013701636
97,7504402362658
97,7736563827512
97,6801992258254
97,7183476161132
97,7933102102749
97,7759758737256
97,8011897656494
97,7693320701282
97,7260615376303
97,713784264754
97,6350230594512
97,6155498259964
97,5805368419672
97,5588178598239
97,6882438738004
97,8375315428548
97,7702849729903
97,6923851183393
97,6900754828086
97,6606786651975
97,5594462296792
97,4997171108691
97,6117429233495
97,6685922236083
97,5381640407621
97,4397740779127
97,4138061089768
97,4541074937033
97,4510705207275
97,5312175475651
97,5730146893821
97,5668422100244
97,4199698350102
97,3131931574424
97,3714880622552
97,4530788658446
97,4175704640726
97,3517304939879
97,3388499749014
97,3677185998525
97,4352023330511
97,4333425058239
97,4093141671772
97,4295004370068
97,363734090131
97,3496592443474
97,3566112325042
97,319681778991
97,3070886547545
97,3335131885081
97,3319040236854
97,3621182355231
97,3324615871536
97,3024333967477
97,3512966908121
97,3407081176313
97,2418006452511
97,1672970469325
97,1490580018764
97,1492074104053
97,1415011474912
97,1683025944342
97,2558435708532
97,2604011280807
97,1971445887038
97,2098949695111
97,2089041217781
97,1540044806973
97,1583413018867
97,220240810602
97,1956337915852
97,1688137860748
97,2125045955679
97,1424219316658
97,1438708771713
97,214258139212
97,1459002270116
97,0971190896748
97,0766115884661
97,0324160540296
97,0240962980459
97,061856310971
97,0621630860691
97,04882343549
97,0455156543144
96,9924685247198
97,0113941894553
97,019962316775
96,9565916779467
96,9941826541002
97,0567002095584
97,052908088743
97,022643767581
97,0259121321067
96,9849096314122
96,9224854787147
96,9418976454942
96,976831662527
96,9730174136539
96,9621176701595
96,9575694396257
96,9393484429795
96,9180606378515
96,8433117669249
96,8821317005744
96,8530962963232
96,8695670255293
96,918332783748
96,9059598499331
96,8734150984174
96,8626082656388
96,8400750558188
96,8017504170711
96,8133818482036
96,8305670081404
96,801157818755
96,8312942430944
96,8366250925899
96,7595640385615
96,7079086686327
96,6958826865813
96,7110684047482
96,7409569320889
96,6802178277677
96,6324689281467
96,6523764272883
96,673722273482
96,70786151202
96,674831883221
96,6385069860937
96,6132348604833
96,6111118910623
96,6181403541944
96,6276363196101
96,5900673245885
96,563052003513
96,5507558698867
96,5051898964433
96,4829457643936
96,4390130524695
96,4080239978163
96,420437625539
96,4043884614298
96,3733712764877
96,3615463431523
96,3520440409953
96,3375856979808
96,3332061232676
96,3091918797992
96,3019813655051
96,2606565343516
96,2048322005408
96,2110481164909
96,2518465215581
96,2077109084235
96,1489080794997
96,15177032074
96,1400066343998
96,0515333452449
96,0205429511854
96,0026207769369
95,9753389564691
95,9950833515524
95,9669270768083
95,9514936328623
95,9487407940259
95,9231364404261
95,8504030716154
95,8281156852847
95,7917334634573
95,7870610612846
95,7458502558127
95,7017455085692
95,6457363779722
95,6370805629913
95,6517372932779
95,6154084403633
95,5692390425613
95,5975936701349
95,5246161382918
95,3967542189588
95,3941627789752
95,3958135980659
95,4087549932112
95,3383734032299
95,2509495303637
95,2853505345245
95,289571664899
95,2756167699886
95,2159010496584
95,1446924137884
95,0012776926042
94,910342725137
94,9562396153867
94,934924019733
94,8717451122424
94,795883909486
94,7008683635753
94,6942840146179
94,6748731916449
94,6228973213283
94,550273291608
94,425584310368
94,2436330057119
94,2579176678303
94,1637475200455
94,1055383351464
94,0711809009945
94,0395891396489
93,9979723138227
93,8974689498566
93,7675019579658
93,6839133119392
93,6665459081939
93,6038855430309
93,4746608821572
93,4014069353558
93,3724216142616
93,2846135531564
93,190761437197
93,0349454253595
92,8384701416638
92,6890712563801
92,7260493458708
92,7576036525848
92,618829970694
92,4326190306491
92,373274675207
92,3013538460723
92,2188705756613
92,093694596957
91,9548142286751
91,7833498808883
91,5996266397916
91,5007900579208
91,3872373491925
91,2666784122819
91,072653541784
90,7712164886231
90,4679551606356
90,4234725107908
90,4283203601025
90,2303107821228
90,1078296160235
90,0070120553273
89,88873524237
89,6909216172331
89,4391700581484
89,2403822587937
89,06396040193
88,7953495682155
88,4604553723945
88,316019881722
88,1256150144919
87,9061473403643
87,7596788713367
87,4958136252455
87,0405580134687
86,4642230808381
86,6145955907012
86,552692134364
86,2714761082595
85,810094345675
85,5009467164948
85,5178280972695
85,3458398118029
85,0512163743197
84,7275924026243
84,3710892142498
84,0369166405909
83,6772501835005
83,3366132584962
83,0798752904961
82,7179892251835
82,0914759408009
81,4242026854421
81,3038344628541
81,5170344156015
81,4008945864376
81,0040127198652
80,6445178491187
80,3691336468468
80,0167327599061
79,6013960079241
78,9899379623301
78,5065050376004
78,5061002778258
78,3304044966756
77,8758366735588
77,3821716547711
77,0226740239787
76,5211440297468
76,3193284465756
76,266105103787
76,0443515822969
75,7030266787206
75,2805774917622
74,7583180774319
74,1515868598569
73,9338917190206
73,8506281130415
73,5912302126551
73,2368903929634
72,8802650269351
72,5122220892306
72,1199756275173
71,5827987197439
70,6950424369036
69,6171874100571
69,169676744441
70,3398183389061
70,8469392309072
70,63553552114
70,1181883281627
69,3850854630233
68,8663365538004
68,6184530335159
68,9021743842768
69,0869963705883
68,9023379468125
68,6206015366855
68,3865535254451
68,1757279304802
67,9556913429771
67,6381828311932
67,1988444564388
66,8382696377971
66,1426080988545
66,1975110434514
67,4450764232262
67,984809889296
68,0218796316053
67,9631653334674
67,9388555579002
67,835867846894
67,5561859411407
67,5386087387961
68,0261116741834
68,3487057256576
68,3250009084831
68,025407062183
68,4095753087721
69,2445853623899
69,7548303951567
70,0885487300611
70,3548213905835
70,3423760309686
69,7988160389153
69,9515637908428
71,3331132683229
72,1767135130889
72,6413139168929
72,9594129736335
73,2382367628223
73,4770214926139
73,6690707709585
73,987748867137
74,403944275124
74,7625978477984
75,2081050367459
75,6286210730911
75,9339711887298
76,2189612706251
76,5951072938009
76,9369590577611
77,3063412266313
77,6676582915511
77,9906945025401
78,2928984638296
78,5652428297925
78,8194375440693
79,0760805299728
79,3944235070544
79,7537588237557
80,0374674252799
80,2896160368063
80,5428902348048
80,8219263591829
81,0936743043858
81,3145734623062
81,526148001124
81,759003604527
81,9673086470211
82,1670220999056
82,3900191654869
82,6045070677728
82,7906787760783
82,9679952206611
83,1406599762238
83,2073973812973
82,9898089734165
82,6301499002359
83,2570744561657
84,0671584833636
84,4215599971901
84,6475430414435
84,7022226330923
84,5079360554874
84,1460813471648
84,4453995845895
85,0389385133317
85,3058551457906
85,3459304782062
85,2783708833454
85,4263635939964
85,7158517170047
85,8099272860726
85,6537723057002
85,0672634475983
84,4394993782941
84,2435466079264
85,0515556959306
86,4190782868509
86,8278067312033
86,6100254859286
86,5387440001481
86,8916077319584
86,9855207565944
86,8787566636722
86,6524863793629
86,7585348280988
87,066976672566
87,1859417768164
87,1229771990362
86,8723368877737
86,8396178809902
87,0287175663976
86,9355294323489
86,8545831751313
86,9698204392745
86,7807914003324
86,8892059422495
87,7690489430162
88,2295584654096
88,2285249244701
88,081376910851
87,7762777461023
87,487443077358
87,7324064486793
87,9861543432838
88,1918225449543
88,2676086852152
88,1617682755942
88,0659581556417
88,0700167449938
87,9899641577261
87,9559295932755
88,264843090711
88,2592682798288
88,0411683511427
87,8686941804763
88,0844592370031
88,6327395856807
88,8022077780749
88,5331845031033
88,3841579338653
88,6062006566068
88,7637712100484
88,9128692807059
88,8588234237213
88,7487783878647
88,8457650390064
88,7792158206875
88,6380312806605
88,4438956282327
88,0548515190891
87,8546762545633
88,4296887813226
89,2002707835945
89,4713756906988
89,4086397651839
89,3377043670561
89,3108325884882
89,2097753674182
88,9822565428568
89,0021310910011
89,0284101303635
88,8805610626046
89,1770578868148
89,4371676755545
89,4930334577637
89,4629585711403
89,2710138384754
88,9815118637521
88,9246166466994
89,1556230574776
89,2476598276587
89,2941643904289
89,5023651104517
89,5984189825477
89,608906154536
89,5522501260032
89,4646507200606
89,3755296014921
89,4045828991571
89,4606986317924
89,4736046913253
89,3892825903699
89,1833386385944
89,160441252642
89,299051035172
89,0901785034432
88,8691048898594
88,8968564258703
89,3116112072222
89,5924608842724
89,6094748342777
89,5828854125877
89,5228578589605
89,4399229201023
89,2219838694622
89,11323805522
89,4123366396502
89,5599574242342
89,5720930709594
89,5262905738451
89,4005396394312
89,1539138329452
88,9179464260509
88,7023202629258
88,9787383724107
89,4919579577563
89,6889097938898
89,7556803088274
89,6891682015421
89,6253852775904
89,6353768262233
89,6108493549871
89,4882629488618
89,3729734121251
89,5403602090835
89,6798727984529
89,7037264921749
89,7179391807395
89,7300653369825
89,7476776309915
89,7648142086067
89,7736548799721
89,7946225237748
89,7817740554977
89,5796074924942
89,3282567178197
89,7071753981148
90,0126510689297
90,0233900519495
89,9948631210276
89,9942230612316
89,9294086598358
89,7898642198736
89,834024913284
89,9579975515374
90,0054018427306
90,0213819613593
89,995202547602
89,8924889559262
89,810516022578
89,9699827719259
90,0297600433593
89,9431367433588
89,6610867601727
89,5562294251777
89,8622038655057
89,9768908145718
90,0867770109753
90,1424238105856
90,1260382839405
90,0727630832146
90,0200307919202
89,9884585071746
90,0110862106059
90,0193538143796
90,0284257299526
90,035747645274
90,0196411638716
89,9453006834101
89,8576843329734
89,9891030426535
90,0981647789981
90,1054910555656
90,0934652228221
90,0153952047233
89,8659596073513
89,871673677086
90,0208543235754
90,0507462281441
89,9434395295606
89,8437768321241
90,0159265129675
90,1925812837596
90,2104580087329
90,1821133329675
90,1615746590307
90,1125212783278
89,9710005855609
89,8595652158511
90,0143373656471
90,1479742583961
90,1920522092169
90,2039742117445
90,1942054662913
90,1506791426618
90,1359968469463
90,1071329520072
90,0794453803595
90,0857165388915
90,1299925149078
90,1090294334418
90,0025351333455
89,9251399560395
90,0112340391962
90,1682131284033
90,2082052845
90,1750906374534
90,1257956791644
90,0588070802948
90,0773555031617
90,1246019406186
90,1265451637326
90,0850065305288
89,9752264432522
89,8183809559843
89,8681274885548
89,9539336540433
90,0280795904833
90,0788721378192
90,0368659521157
90,0059549770389
89,9936628487332
89,9398402560919
89,8721379028115
89,8612378322332
89,8500015356274
89,826903813416
89,8088898319266
89,7852486380996
89,7624101728988
89,7842682102702
89,814808159129
89,8367951248631
89,880166509671
89,934004984872
89,9868124664839
90,0358845271561
90,0465567237296
89,9709423003754
89,9018422095446
89,9446799841335
90,0568042261568
90,1314603815425
90,1560204476438
90,2000815785398
90,2047088300017
90,1930672052058
90,1515759398298
90,1316471219557
90,13614952856
90,1666908702518
90,1724131801107
90,1577063006377
90,1609047764269
90,165847660256
90,1631078902471
90,1661452113195
90,1590975915105
90,1514195142886
90,1424589737122
90,1444117573044
90,1178190468899
90,0927357059038
90,1090970661242
90,1174803130821
90,1301369809425
90,1099063466396
90,0746842929891
90,0536511347426
90,0738948838375
90,1002768250093
90,0885766415065
90,0662737185274
90,047818066263
90,0357559277355
90,0061475761396
89,9809613115443
89,9742204598358
89,968553639374
89,9692611737143
89,9662063679393
89,9435075739237
89,9262899823173
89,9135818019858
89,9008493393307
89,8948005391467
89,9052642802682
89,9091438196825
89,8936920994013
89,883038980392
89,8700282228003
89,8589707731719
89,8473443315554
89,8342705742563
89,8321478464203
89,8258677302877
89,8075541138051
89,7860674640253
89,7814974639804
89,7808939703809
89,7782244908705
89,7638436937444
89,7349483291591
89,7158330033608
89,7143770791134
89,7085496955617
89,6666044429598
89,6361996100704
89,6315314126014
89,6062973372361
89,5822658457617
89,560235366763
89,5180259565153
89,5056865159555
89,489831578249
89,4512017318233
89,42276523234
89,3973720720363
89,3471046231937
89,2848326635987
89,2320393007704
89,1735389734483
89,1245309037149
89,0675641701142
88,9995679332127
88,9433391008766
88,8786641488058
88,8093320113992
88,7359289688403
88,6355156438039
88,539992543506
88,4656134064028
88,3813989469951
88,2752882124056
88,1598744193403
88,0444185251871
87,9270834816532
87,8114758936934
87,6935499242789
87,5530075071067
87,407070572413
87,2609383477025
87,1036688010999
86,9485973538707
86,7927025237496
86,6213759099848
86,422253759962
86,2313199193728
86,0654895423861
85,8902117443058
85,7074261386491
85,5251777167878
85,3445488175711
85,172899765006
85,0065239396722
84,8449127161994
84,6930395723871
84,5388795483254
84,3851463775124
84,2473566266976
84,1192377066614
83,9912348531384
83,8696278389733
83,7569552826571
83,6493383925437
83,5337695043658
83,4201165336228
83,322727256715
83,233056803294
83,1391744653534
83,0475286147906
82,9686801114051
82,8994604150106
82,8267923435279
82,7466187686822
82,6661022648978
82,5902744718779
82,5214391114698
82,4558916540171
82,3918017913774
82,3288742944479
82,261814624131
82,1974744465465
82,1445100639188
82,0872339898556
82,0258347319058
81,9626124395727
81,8921470004809
81,8207707981728
81,755789476018
81,7061959388457
81,6591669138615
81,6030502210626
81,5417386581498
81,4775431672934
81,4173819039345
81,3607385774701
81,2963642574164
81,2324401954376
81,1747603956969
81,1024656244484
81,0349239629755
80,9906576522487
80,9364890358755
80,8710643034519
80,8090476989877
80,7419554188817
80,6761514757493
80,6203966377823
80,556127637655
80,4920706068545
80,4386391305788
80,3770004680625
80,3114355414126
80,2537226550306
80,1974358471439
80,1369770159223
80,0830351034156
80,0386672843186
79,9810028911175
79,923008566868
79,8670420302847
79,798594167216
79,7396916640445
79,6918032600545
79,6414586885023
79,5809750141725
79,5174387536844
79,4667956725692
79,4192137167553
79,369363688954
79,3295033781792
79,290309797813
79,2322298982913
79,1646475782935
79,1076180248837
79,0677857900489
79,0238222002124
78,96122553825
78,9006633218477
78,855025081059
78,8099097977458
78,7682612534593
78,7322435549331
78,681613311101
78,6227365441443
78,571652339452
78,5316083305424
78,4810826621364
78,4221574129954
78,3637587786549
78,3061029349983
78,2541476395737
78,1982973143947
78,1440748212794
78,0903894796104
78,0405728102019
77,9951264582092
77,9396956862185
77,8822763186165
77,8302711545598
77,7817782225823
77,7335196603013
77,6832824077958
77,6297197570861
77,5727088934522
77,5145562936873
77,4660820774911
77,4267785153153
77,3760634480816
77,3122277304476
77,2558308087947
77,2049823175758
77,1507131552339
77,0902316890116
77,0378917046632
76,9940142738121
76,9282818006326
76,8644314588408
76,8080725235653
76,7331824958861
76,6578301250458
76,5836101357636
76,5126555461755
76,4577521054653
76,3900321410251
76,3104917286194
76,2441214461148
76,1667982298137
76,0604607825614
75,9504612567605
75,8571692616803
75,7606656570193
75,645769276378
75,5156553688135
75,381322979981
75,2547726270574
75,1235597471726
74,9782713552258
74,8263752697464
74,665109623022
74,4902579508585
74,3148071034117
74,1477939297036
73,9698387440446
73,7903353918583
73,6024374575381
73,4003850864651
73,2032847259359
73,0096421906227
72,8246109792667
72,6367839551065
72,4440604796142
72,2513343051625
72,0603236535576
71,8790103061773
71,6970175013284
71,5182871226361
71,3324124572007
71,1437509046504
70,9830784928489
70,8289300257343
70,6638995455779
70,5013316570513
70,3372773734959
70,1854725273115
70,0498165975463
69,907663245636
69,773638980304
69,6455286396644
69,509616043673
69,3752246971501
69,2494596948436
69,1281122686745
69,0037948896732
68,8875878791622
68,7761397437571
68,6699947528937
68,5667290903852
68,4669844490072
68,3795688507673
68,2854114487924
68,1869474917195
68,098973998381
68,0170751890994
67,9469026899589
67,8913769863277
67,8300301998098
67,7647015767483
67,726587696452
67,7040903912459
67,6702649514526
67,6380694877173
67,6318333462674
67,6500495701284
67,6678245040383
67,6655205163403
67,6785196931325
67,7216595399749
67,7741621096822
67,8479915883413
67,9335597626448
68,0216538150437
68,1252911292332
68,2400812450965
68,3759317475827
68,5357967350321
68,7096430612407
68,9056234893593
69,1109832345589
69,3330754600375
69,5923139445612
69,8740238665612
70,1521706070866
70,435026583329
70,7461925197896
71,0816652419672
71,4264058166158
71,7765780803679
72,137311065105
72,5119036039126
72,9013435715733
73,2937031262234
73,6914619493641
74,0836389680671
74,4701319728778
74,8572992586016
75,23026665644
75,6045778816289
75,9805574474029
76,3356102518152
76,6803865496253
77,0229760470417
77,3551948789488
77,6588693816912
77,9490874014193
78,236863483284
78,4913696011053
78,7190694908438
78,9475818781322
79,171037868182
79,3634255783336
79,5300042840607
79,6831327874886
79,8147721546931
79,9251070298174
80,0092514244404
80,0575866238155
80,0686906046153
80,0620793151376
80,0437115297591
80,0135425571772
79,9439167718766
79,8323113035977
79,6891687776222
79,5188027463452
79,3383651750525
79,1389475877117
78,9171384578519
78,6912283804891
78,4648347520325
78,2282205620941
77,9791690684114
77,7340665720124
77,4981331324861
77,2526717064882
77,0030321593016
76,7724312959213
76,5442351035262
76,3389438330171
76,1637507226498
75,9923851292428
75,8159149646167
75,6404497440277
75,4982569862324
75,3810447665267
75,2690924532573
75,1804757894253
75,0879584173445
74,9873426296591
74,903379039916
74,8335688900597
74,7856224335596
74,7443629237152
74,6775624040422
74,6132929963151
74,5848961298172
74,5798306971628
74,5396317728127
74,4721246164341
74,4343420492865
74,4160775084755
74,3905478771686
74,3578312019908
74,3191338352017
74,285925917104
74,2682983327639
74,2564613861308
74,2459057588325
74,2442406858442
74,2294292902632
74,2048125269609
74,2120244910198
74,2448024271605
74,2635239179805
74,2670016813332
74,2693463323105
74,2854573863069
74,3103406060018
74,3334120823579
74,3741685006174
74,4137483476555
74,4388013589853
74,4636524533222
74,5007410584227
74,532175174046
74,5583210576211
74,6011641934755
74,640000688372
74,6938187032334
74,7415797615082
74,7641777167786
74,8197059293359
74,8879783396167
74,9240268902056
74,9420247802685
74,9692953539967
75,0060006680648
75,0131363735332
75,0168580984402
75,028951343574
75,026054074567
75,0251282535519
75,0286835941167
75,0321690761795
75,0017352019403
74,9577458575338
74,9370429720804
74,9258141066051
74,9026418064167
74,8727646111317
74,8653170080701
74,8546450262161
74,8198219142246
74,7955116407591
74,750234077698
74,6794350058233
74,6292605793541
74,5939159131379
74,5596363351105
74,5276876232762
74,5092096389482
74,4654393132383
74,4159568469728
74,4000353165957
74,3776757330845
74,3286139451811
74,2729513281174
74,2166194389007
74,1708422201513
74,1475764375049
74,1275283587275
74,073414889256
73,9984009172509
73,9366448267499
73,8714042921922
73,8089838057931
73,7333738648458
73,6308001270128
73,5566230862236
73,5041403201775
73,4395209818622
73,3722096532139
73,3068442525064
73,2390627513152
73,1299301393944
73,0270888823434
72,9599687615849
72,8814293716539
72,7836436173286
72,6864085253241
72,597898390743
72,5169844151425
72,394731918576
72,2705468972748
72,1854592961913
72,0776341281524
71,9696718030927
71,8597108265497
71,7027476513117
71,5507689340831
71,4431004109188
71,3442195284489
71,2194383385364
71,0689435576548
70,9391107565363
70,807630061517
70,6521622368807
70,4846030062953
70,3500254359115
70,2370351753131
70,0980670192524
69,9528486624783
69,8384291291116
69,7146760298026
69,5551606213905
69,3714116169398
69,2233176213109
69,0997955640504
68,9628200094953
68,8110292017045
68,6090885736424
68,422685045387
68,3049782551821
68,1522635572695
67,9737092908833
67,8392445370776
67,6792030804381
67,4602289303304
67,2774431520817
67,1044289331065
66,912368661438
66,7659281512944
66,6030852076464
66,3632346026503
66,1659952153341
65,9802363788531
65,7628987619681
65,5938958113643
65,3974729060946
65,1731964863082
64,9741409577753
64,7634274983472
64,546992918525
64,3290745744596
64,1180502801951
63,8944381153285
63,6572311021284
63,4356063254074
63,2249285021173
62,9920056874939
62,7561732599376
62,5425436906808
62,3381351921101
62,175929447395
61,9633574719875
61,6957113192957
61,4638679836987
61,2403636202128
61,0048391222892
60,800330548283
60,6286790461514
60,4255842957226
60,2368962286333
60,0731068415338
59,8450560335071
59,632179088261
59,4377778764859
59,2163806138165
59,0362524457821
58,8609946148882
58,6427540426192
58,4214649358222
58,2078840875829
57,9947114179553
57,782675188063
57,6104261335737
57,4706981166289
57,3214323877081
57,1863287749028
57,044170535416
56,8397566633461
56,6391434734457
56,4898630285269
56,3792693390784
56,2628867831832
56,0932130260243
55,8887860016959
55,7387533898295
55,6643055999372
55,535285555207
55,3815649174573
55,2402558927506
55,1114752135862
55,0099347575407
54,9053725657251
54,7734965479727
54,6660458863868
54,5727521313208
54,534990192442
54,4472689638588
54,306848581052
54,2434549213745
54,1156440834974
54,0193287421129
53,9936370797109
53,8296667184637
53,6431610606942
53,5159807913701
53,388659488878
53,2865683231868
53,1541706603854
52,9972271342997
52,8407955007912
52,7082457367992
52,5752700896173
52,4339748346022
52,3149788982066
52,195007297334
52,0562011986268
51,9146717509998
51,7679759421307
51,6451547122065
51,6089648541788
51,5074598344646
51,3461834083243
51,1683670146979
50,9954019635722
50,9182437623241
50,7635342235063
50,5275930239979
50,3545638316404
50,2732609751391
50,2228634293802
50,1402830466317
50,022550295642
49,8903733259512
49,7001848827381
49,5349666626124
49,4895605039791
49,3651498655396
49,1562090729416
48,9746634105114
48,8428833126793
48,7959255640427
48,7704538641279
48,5431243849372
48,2969577109705
48,1456917930457
48,1409831112286
48,0321825224903
47,8005387129478
47,6285093004105
47,5017470874628
47,4273126863035
47,3997616903943
47,2101485777885
47,080777125714
47,0022660879661
46,7728095112658
46,5609689244383
46,5056043133515
46,4297878974257
46,3295325565966
46,3295205747474
46,1005784482857
45,8323648841893
45,7774881861331
45,7179646752165
45,5555094224247
45,3245680255416
45,2141215418926
45,1450046110122
45,0739064680336
44,8907904492091
44,7414850526006
44,6939867403495
44,6145269413857
44,3916558004767
44,2786777374087
44,3041617390678
44,1049123544211
43,7620820831203
43,7385772128298
43,6956029418971
43,5493432990991
43,4701578251872
43,3310764461414
42,9846021826313
42,8876717032728
43,0073288455814
42,7885514165406
42,3160832852605
42,2903323970625
42,3514675166901
42,1826053371458
42,0127598175307
42,076240824315
41,904445819029
41,6050329371085
41,4802730538896
41,5702235141864
41,6943937263565
41,652024532188
41,2524879882228
40,8443608555632
40,6788312860868
40,4625910401355
40,293709335151
40,0946839366171
39,5689947632737
40,1984778980292
40,5731375946219
40,3180367850827
39,5971034878761
39,2612197868219
39,4472338777674
39,3780981311782
39,3148426302199
39,1829830684692
39,0716112794902
39,3363496577688
39,1614011109966
38,8237186948868
37,9278736196427
37,4739856265008
38,0329961537303
38,1192518548704
37,5447541886581
37,4778839271356
37,5087600433169
