3596
4000.36533379555
650.420452594757
1
128
2
99.6937699539732
99.684495687022
99.6187489602968
99.6074076290247
99.6210896282994
99.6310226500998
99.5576298746482
99.5416976395385
99.5614071008802
99.5484070588587
99.5806770868965
99.5754616023195
99.5185216826315
99.5335835215789
99.564684500793
99.6052548978296
99.6102713652254
99.5844171378807
99.5464206739077
99.5765902581939
99.6416293864059
99.6728183025281
99.6200454675195
99.6009028210312
99.6019993668645
99.5709276225616
99.5340649367267
99.6191953074224
99.6415939324693
99.5469519288791
99.4804894421663
99.4965326449635
99.5784084267243
99.6599736043273
99.6353764641006
99.6242883470494
99.6348522715104
99.549009721141
99.4168347838548
99.4321993068856
99.5140680651381
99.6567098099931
99.6616117702948
99.5640634893474
99.5304089261879
99.5919265046948
99.6377730848722
99.5822362586442
99.582928230872
99.7232376989048
99.6322747203148
99.5209913701846
99.5073606190655
99.4242318510183
99.3640074435296
99.405844081477
99.5448780871171
99.6669863904128
99.4679051904189
99.3137247434014
99.3442556420695
99.39223358319
99.4489964274327
99.4457745980644
99.4359253553784
99.507009763093
99.5683654172588
99.6216920100773
99.7449612993262
99.6135201621839
99.4181313920564
99.5003424857402
99.4707142107282
99.3295557902385
99.3749087625558
99.6233306870694
99.7790993736857
99.647131916125
99.384999858002
99.2642463275731
99.3959851909888
99.6366830963222
99.4927452679059
99.3272331753817
99.6508274038433
99.7225406706185
99.4099579973313
99.3224651236057
99.3403017548227
99.3707420778332
99.4516306232857
99.495416939472
99.5405118686525
99.564005106557
99.5374053467849
99.59086743104
99.7208548045804
99.840317999409
99.9207816714779
99.7479672718919
99.5270342249541
99.725388449394
99.2739542138535
99.3734306947434
99.7485202345456
99.2272804524678
98.8705123536254
98.9582445492362
99.2766278831685
99.5185970431906
99.4991765240569
99.5703872083111
99.935694218609
99.7183534698137
99.0981913879571
99.1002103355912
99.2534335643141
99.5585032836321
100.083152799231
99.8300957069041
99.1522588294625
99.1749459660876
99.1934658426188
99.4862475705951
99.9300350226132
99.5505958867065
99.0155951662064
99.1379839814722
99.2804089669073
99.4604768430083
99.8598857711963
99.9498788601275
99.3098225573725
99.1311235106601
99.5655756571321
100.150987244612
99.9276169938346
98.9605843751987
98.649454138799
99.0695297166153
99.7365310435628
99.8089134536066
99.1207793218434
99.0632243093396
99.3500342707551
99.1654537015291
98.9842078098117
99.1810111358354
99.5185286860139
99.6984057725951
99.4044542441303
99.6654438154549
100.467460696219
100.309303598598
99.650188276158
99.2734275284394
98.5465035700648
98.6816600166156
98.8608021723336
98.9546018762262
99.1013531781284
99.2485236954513
99.4092377230208
99.77219155743
99.6661547522131
99.2118170200439
99.4781543868987
99.7829082346192
99.4657401439109
99.6242762085408
99.8606025406973
99.06362212703
98.9799852327252
99.4256002005487
98.9532232795517
98.8425950726822
99.4615153854956
99.5166646696487
98.9967709553048
99.0023199623587
99.2286089272496
99.6064250983753
99.6833361021086
99.3191280057136
99.193527917434
99.3446660533984
99.5066288716781
100.012964686982
100.164804515482
99.281082771505
98.5921924467802
98.7813784525131
99.3305116492191
100.01896282096
99.5262914093345
98.7200470961832
98.7883115733406
98.9994698152682
99.1336946827646
99.2281248151151
99.2874648898849
99.4331225139239
99.8723199584558
100.194068144631
99.4408431784926
98.8977938183375
99.1084413838905
99.5036218733805
99.9228147472871
100.082513593206
99.2985985639262
98.5837727478396
98.7846439643553
99.2356395676441
99.6026214149991
99.3469011618068
98.8370475369062
98.853994494783
99.0240329295379
99.1702797131177
99.2484909237833
99.2921059532086
99.3241548455152
99.3829324628512
99.3856638516545
99.4015257135283
99.4911937628485
99.5338321585442
99.2947454144734
99.1491523724632
99.2185802154779
99.3742946277654
99.6902736970384
99.6480873553251
99.1798091356041
99.1084877348327
99.0882024399588
99.0941902795027
99.2087588828464
99.3052462173414
99.2365541963564
99.2899505189323
99.6224387136492
99.8042370430893
99.1640606737564
98.8529071268583
99.1268710035823
99.446180509097
99.1934644911654
98.8421329015131
98.8962067318965
99.0191135060074
99.1172690049211
99.4665147587626
99.5812108867851
99.032634638319
98.869184474834
99.1036169055547
98.9035277088086
98.7925220114528
99.0270421582295
99.5310430482665
99.8640694668245
99.1881538928527
99.1248340953173
99.475923269283
98.623929881811
98.1715215957865
98.4261635152847
99.2619104167314
100.124595110479
99.1737874020542
97.8466503046822
98.0739903452387
98.4116249701047
98.4157354955559
98.5993932317366
98.844027415712
99.122705094522
99.352733647333
99.2586747180754
98.5800726307403
97.9918525203361
98.6371612125682
98.5390838870667
97.9757353182751
98.1320945372857
98.3452895135885
98.5459078896026
98.7961512344532
98.6815789017779
98.407177593748
98.3380157497377
98.6051247667362
98.859881426731
98.4208088982625
98.1310927723252
98.4268812766393
98.4585669233533
98.1428257758672
98.1631221498837
98.3750506310691
98.3985432624682
98.290531999721
98.7317850422445
99.1338769222983
98.3926816962252
98.0295589002275
98.138597821513
97.6849007423485
97.5692503804748
97.7960751947344
97.819734184751
97.7548417556013
97.7498902439591
98.0117025599464
98.2597850419672
97.7488369574518
97.3002011540227
97.411490209061
97.4079947540329
97.3987909633061
97.4105338956418
97.3275876048975
97.2678788844066
97.2232092187069
97.2592924920971
97.5771188616412
97.3256978002597
96.8517178141155
97.2183192081278
96.9415435354857
95.9878069746799
95.8113435420144
95.9181410199511
96.0812505361652
95.996073186287
95.8329743791955
95.7123947887256
95.8514841918026
95.8486034128009
95.4142668396744
95.2805997182271
95.7077944457271
96.0425601144769
95.5594887736062
94.2335714762852
93.5932711111833
93.9641028669712
94.6838174144916
94.4333879182279
93.8245349342729
93.527680036269
92.9335531858015
92.8917923195537
92.9789541824091
92.9349924537259
92.779438655823
92.5648056849197
92.444464600649
92.3470460300889
92.2170599316469
92.0194325834754
91.8180853476761
91.8706939815756
91.8707817889939
91.1267480070098
90.5878232183599
90.5425180208243
90.6410446354044
90.908535883188
90.7684233098819
90.3195137206006
89.9601810541537
89.6281563033633
89.2969424255733
88.4074994130623
88.265796487103
88.4649655439875
88.4745693192064
88.3513477100452
88.21748793557
88.0274905314064
87.91229823688
87.8554361112873
87.6591238879507
87.3612458591291
87.2210983161373
87.1457947482588
87.1149921223897
86.7392168593576
86.3905723209937
86.382168974902
86.649594277943
86.6937588635557
85.9680532963044
85.0403175253757
84.8952045714048
84.9488969488471
84.884650482186
84.9808712534107
85.0025974227193
84.8439895888719
84.7629761531138
84.7670603630567
84.4112855266855
84.0623174182365
83.7460494534685
83.3966821490143
83.5342865503841
83.4527366319946
83.3245493246741
83.2832763890142
82.7958657391919
82.5377500350422
82.765707999983
82.6441089575854
82.3664543232766
82.3462505515311
82.0566914650164
81.9244093518845
81.9179883641369
81.8868735227052
81.8537387263418
81.7592161176872
81.5565944411849
81.2498961842758
81.0918213246465
80.874866742492
80.7735559589401
80.7789044837679
80.5124153466788
80.2202394971575
80.1034668669018
79.8545137188586
79.8281256199244
79.896018400859
80.0044651301828
79.8354098712148
79.4429309694481
79.0815501614442
78.6114912596293
78.4859621902341
78.5279150305313
78.5294328493599
78.4840732591967
78.371361095411
78.1945403497254
77.9438745058655
77.8282467237416
77.7858405407036
77.6346692537808
77.4731346331913
77.3892449245026
77.1959469082236
76.9864900909075
76.873111346009
76.756573771627
76.53719526012
76.5343348158472
76.4190250253571
76.0329669845183
75.6096985278133
75.1668401732286
75.1808327317379
75.2429033371039
75.1359818255252
75.0778102802936
75.0337270885741
74.8433180427745
74.6091755871524
74.5533205533676
74.4657039156681
74.2581087392226
74.0668686098678
73.9295301913359
73.812077906326
73.6484660144099
73.3434059620957
73.168469259763
73.063664344533
72.9711258285455
72.8806086256913
72.6647707182297
72.4450458888048
72.3053776366629
72.1084122973913
71.9802401538832
71.77097037652
71.5703423955792
71.4563066135492
71.3716219022651
71.2568044329571
71.1574039613523
70.9735881377231
70.6887673849008
70.4537900050211
70.3019064404234
70.1292218089407
69.9978186645173
69.8449096914234
69.6930786725929
69.5018085641394
69.2824738120362
69.1543195998591
68.9961586508848
68.8699907777271
68.7826298559882
68.6198044595454
68.4318922311658
68.1648918911214
67.9383727490313
67.7969526655026
67.680064825242
67.5280671082801
67.4511378613828
67.4190875614141
67.2950615759457
67.0867520528914
66.9096764170456
66.6953235359257
66.5019676715133
66.3137259595285
66.1232478455681
65.9460319308737
65.8400127765702
65.7138191823708
65.5861732968363
65.4835635134308
65.3999962553178
65.232921555112
64.9354941726672
64.673992433344
64.625713760726
64.5605302906073
64.3980583217751
64.1696137152351
63.9718470359519
63.8005572416399
63.6187699823403
63.4854025656437
63.3330949050377
63.1193735402968
62.9910060000022
62.8508611666755
62.7303296818743
62.66832716385
62.4932557795197
62.2374258713124
62.0464699328684
61.8905545845067
61.7652693358717
61.6216498952517
61.4633438255049
61.3619026148366
61.2416427037086
61.0187867935362
60.772291765061
60.6368629219665
60.5610439234981
60.3782592136985
60.2172595749779
60.0998880920773
59.9431464225303
59.7770973435207
59.6896078210742
59.5744081383535
59.3869468697021
59.1988389666715
58.9957413736676
58.7341018784825
58.5834993159631
58.4438995888786
58.2689703189296
58.140975667405
58.013785306228
57.8639926459051
57.6871115915694
57.4809851830327
57.3665288476332
57.2558863326412
57.0922492905518
56.9864688879667
56.8400310083724
56.636340878587
56.5409953727946
56.3853708778212
56.1437535625233
55.9898599254506
55.9560116147086
55.8196919808195
55.5870243614111
55.4460179779248
55.3242794216531
55.1850826818283
55.0197964732613
54.8663965446775
54.774654383691
54.686142227676
54.6107295499499
54.4767493774079
54.3350681978289
54.1860824729073
53.942199991757
53.6707693464297
53.5095226279333
53.3856775223205
53.2438109171034
53.0786156886028
52.8934281927425
52.7169304534917
52.5357114509711
52.3684919509875
52.2500394164996
52.1144685782266
52.0154380640208
51.9539531678285
51.8456608039344
51.6770346044057
51.45505586624
51.2621710533112
51.1707201573654
51.0867274556758
51.0348330645833
50.9538147365494
50.8411237758013
50.7424827325839
50.6020363794829
50.378029217527
50.2193857991015
50.1889294740452
50.0869021273763
49.8435296447608
49.672402536459
49.6077789053941
49.5564337418803
49.4831330715027
49.3747509357832
49.2627743244124
49.1812511614554
49.0256256222575
48.8351388676897
48.6381335733503
48.4764478059961
48.3644756320842
48.2852286579276
48.2535772237149
48.2148845664749
48.1281623282303
47.9978740644892
47.8347485519789
47.7020717480682
47.5574376600259
47.4335309300337
47.4124588295134
47.310552672556
47.1357694560786
47.076822757198
47.0420805882294
46.9997527212208
46.996782560126
47.0095752313692
46.9175565980206
46.7445791540054
46.6674285418215
46.66291970684
46.5579827461419
46.4394094258443
46.4173864157323
46.4218206346046
46.3624247605752
46.2936505526026
46.2495194456039
46.1918259432798
46.0870514906151
45.9430462320405
45.8043707125494
45.7271201932706
45.6221715170619
45.5257216596826
45.4813062164945
45.4704757867177
45.51803425092
45.5076728037616
45.4012650575374
45.3025440825853
45.2537938090577
45.2398737878874
45.2357447100471
45.2288517758429
45.1944716003491
45.196781910972
45.252263195495
45.2312776180004
45.1567284455555
45.0794883013869
44.9696872188692
44.9545152471528
45.0229548790305
45.008192965412
44.9528153864977
44.9910693639905
44.9925855897389
44.8818165854751
44.820563043792
44.8514509531737
44.8502624149814
44.7689449393403
44.6875892880795
44.6400571594438
44.6239162656097
44.622073585706
44.6188173343661
44.6531395528458
44.6626750887483
44.6298809997753
44.61369476132
44.6057824982874
44.5810465831515
44.585936027776
44.6156569502923
44.6095834635669
44.5743197948944
44.5464034608803
44.5022221568623
44.4449207013789
44.4398097319188
44.4678264192188
44.4858685707272
44.5075994612277
44.5050894998217
44.480265046436
44.4822182566907
44.4890949293338
44.4679778606101
44.4580592815679
44.5048086964718
44.5176215119496
44.4601446987453
44.4787216093013
44.5182247660135
44.4762748103593
44.4306466637044
44.4150926711832
44.395037151925
44.3427999343802
44.3173355879468
44.3384136953441
44.3630723143847
44.3904788262313
44.4168526187039
44.4009927531438
44.3745581785434
44.3917903526579
44.4070381162464
44.374988524811
44.3291295420964
44.2909050571687
44.247949102865
44.2318750873685
44.218162667422
44.1945798531804
44.2478062360704
44.2861111857432
44.2807961124009
44.2959943545057
44.2944245575382
44.2992218422276
44.3171587425973
44.3496666978582
44.3050977968375
44.2395087975092
44.260079767419
44.2909197362821
44.3169091256086
44.3113929146936
44.2714559862049
44.2888144692773
44.3601898582616
44.3370356261468
44.2523206169033
44.1979181442288
44.1744842478792
44.1808264008254
44.167302846535
44.2086926739566
44.2679269172395
44.2194939654742
44.1962717953985
44.2225237448225
44.1787041648419
44.1489105385821
44.216221442029
44.2739458283201
44.2783475339161
44.2937641455045
44.2589603242141
44.1998820145898
44.2034362454843
44.2401792965649
44.2841870407618
44.3055675389484
44.3135501459798
44.3206832492268
44.3540392302826
44.3413481095591
44.3158890093085
44.3287874270594
44.3383796007418
44.3590051935233
44.3790301503421
44.4131899840288
44.4707347780178
44.4870128238175
44.4961510088773
44.5171028554251
44.559908430078
44.612926983777
44.6609234598811
44.6935649807681
44.6932175625639
44.6728611279275
44.6808859817223
44.6815801070049
44.6897864728851
44.7523065726774
44.8292442243854
44.8642783945764
44.9346943091989
45.0414930979611
45.0826153334928
45.1189328760315
45.1970266230469
45.2521797982597
45.3078713936446
45.3602329994844
45.4123884593208
45.4664772687914
45.5100382584356
45.5637932987365
45.6241588015515
45.7035876265723
45.8240158247319
45.9533699774269
46.0332921297278
46.0548190189682
46.0752859566376
46.1933974879332
46.3333030016126
46.4140079933321
46.4987360541115
46.6082116780634
46.6898666735793
46.7560943434279
46.8893978090421
46.9714809690004
47.0397000902673
47.1470386369701
47.2780391585376
47.4103446721228
47.5477498029054
47.6588806658878
47.7546897288769
47.880993348579
48.0420703486062
48.166285427945
48.2484747558407
48.3511032998186
48.4519968750191
48.5649195256126
48.7079900611622
48.8413522392013
48.9791769722553
49.1278556867727
49.305421976821
49.4424354155863
49.5594566299257
49.7264709479356
49.881626490384
49.9952568704132
50.0968230059347
50.2321168032683
50.474457058781
50.6913612880208
50.8056251673706
50.9600281961891
51.121260413162
51.2659208294526
51.4333060486764
51.6053799426931
51.7731937448528
51.9285669864292
52.106237375974
52.2776950268228
52.4690935489612
52.6397677992483
52.8128394792159
53.0313780588644
53.2389068332446
53.38004977929
53.5223112633057
53.7307068621892
53.948862585713
54.1824456896218
54.4120347422586
54.5954393799705
54.6989105140488
54.7837588481682
54.9622425678542
55.161153379082
55.331821907879
55.513964849446
55.7220676359467
55.9330515840713
56.1703986961025
56.3701406908248
56.5610831327143
56.787734191972
57.0401772949954
57.2901199158975
57.4970744165356
57.6771795218359
57.8588052227592
58.0101608585781
58.1495865251674
58.3767778862915
58.5857622498736
58.7598822755157
58.9739286880658
59.22108166614
59.5096856983573
59.7395078932142
59.9159683979165
60.1144666604182
60.2828774984759
60.4414308247079
60.7113870102816
61.0132857635363
61.2666228025408
61.4733739275484
61.6489764534928
61.8873341387502
62.1045779764728
62.2783837050471
62.495547928996
62.7212048518803
62.8976616034709
63.0607233206072
63.2793793149008
63.505576882535
63.6945194548147
63.8692863443255
64.1116998008541
64.3892352788844
64.6123482444357
64.8036754734553
65.0123621648279
65.2313647788519
65.4468500253181
65.6923349617132
65.9392536158557
66.1275642415487
66.3088690554396
66.5553643166368
66.7824063600184
66.9568653961352
67.172732936854
67.4192009700295
67.6230334027267
67.815039882144
68.0632362337596
68.3099784703423
68.5431708730281
68.7431919994494
68.8806994381293
69.0959207419344
69.3622859622042
69.566881274129
69.7848666500292
70.0126256104562
70.1731122609845
70.3575408110348
70.5794329020459
70.7449516815742
70.9114969496752
71.1374969870398
71.3418987617976
71.5145842095221
71.7021566570145
71.9244706573117
72.1545155126735
72.3794524185982
72.5875492486307
72.7781573175868
72.975667574131
73.2034549507737
73.3950425957029
73.5508315904683
73.7146976102855
73.8815150012803
74.0838983594349
74.3108476275085
74.51864745315
74.7047470863143
74.8834605909196
75.0735621842509
75.3057236846176
75.4768976539299
75.6764379491145
75.9054263344729
76.0557686386041
76.1944147084422
76.3588738835474
76.5579091712328
76.7836579750892
77.0327472757453
77.1966103231982
77.3051453334364
77.4633718094091
77.6257762601535
77.8173606231176
78.0273242352938
78.1888629503473
78.3453995850385
78.5334503431171
78.7170620016361
78.8913775778212
79.0747920221071
79.2455224755278
79.3705186957832
79.5378714703813
79.7309877783811
79.9021347924398
80.0466899442748
80.1623657737898
80.3178366192272
80.4751067628408
80.6258018264793
80.7843939380668
80.9517701847205
81.1266031434616
81.3028334875956
81.4558952297783
81.6163293431319
81.7683979855286
81.9411067842731
82.072300946315
82.1807122927637
82.329245227161
82.5176732873943
82.6619774435256
82.7902447372089
82.9183149311628
83.0658409898379
83.2421581237781
83.3821456122366
83.5212804008564
83.6535549903465
83.7606379857908
83.8494417920944
83.9544867945121
84.1433744889378
84.3366783601791
84.4360883990932
84.5242553686508
84.6759024989953
84.8365869051451
84.9911153922426
85.1137886884291
85.2347967334436
85.3624837452949
85.5239635739312
85.6609789132705
85.77698384462
85.8868389999437
85.9899105072095
86.1135739149336
86.2138444360689
86.3291674694717
86.4667203490784
86.5610943457321
86.6693502058777
86.8007389963267
86.9280504912297
87.0321013402277
87.1342534796821
87.2867109968842
87.4217464648977
87.4691482148302
87.5454227186305
87.6492406705812
87.7726470230572
87.9397866334246
88.0335756148425
88.1198090555499
88.2247338370032
88.3140098530878
88.388641030457
88.4845299737451
88.6008093150365
88.691425349899
88.8021528390576
88.9222217047459
88.9804879080712
89.091215029951
89.1923132969332
89.2269565769321
89.3173834879071
89.4241720652338
89.5156175362658
89.60703874173
89.718321889309
89.8170830158749
89.9490196181571
90.0432400906899
90.070615168227
90.1250160236844
90.2043582273911
90.2848985023138
90.3709014531513
90.4729591528794
90.5680343626527
90.6326475872131
90.6856141432988
90.7304440029822
90.8246864225507
90.9307169395782
91.006935809165
91.096676029939
91.1779941144703
91.2608770897541
91.3623853112268
91.4068645983745
91.4702464542519
91.5651465094607
91.6218411354124
91.6846800966628
91.7859467687076
91.8587616091986
91.8782788668965
91.9316989830866
91.9954353262836
92.0234766568123
92.0900055868554
92.1521659268128
92.2079946170121
92.2920556265423
92.3496917637972
92.3741929225146
92.4602583055207
92.5830950708185
92.6438266051556
92.6579356236021
92.7063669767923
92.7885584491973
92.8168444229671
92.8251232249251
92.8808068216131
92.9661334251014
93.0595366950895
93.1491570233757
93.1947702232461
93.2563649469523
93.3648364607812
93.438515484018
93.4951964948956
93.5315831799685
93.5949567774932
93.6986197760867
93.7677059678576
93.7992954831367
93.8588940946742
93.9105841237692
93.9673456323885
94.0389621045506
94.0802347642442
94.0930271089165
94.1461896534289
94.253337762884
94.2918439284985
94.2832613551127
94.331296639041
94.413916752382
94.4894852447638
94.5317508242466
94.5672357764716
94.6439107636856
94.7191503259827
94.7407440574138
94.7277953550385
94.7543884757295
94.8032949223387
94.8636834254624
94.921390479409
94.9793642504247
95.0215247103228
95.0428125476653
95.0947405535391
95.1209933343777
95.1482236440594
95.1884737937835
95.2349662381452
95.2646964112745
95.3179905925888
95.3747208663045
95.4103375757709
95.4419644801134
95.4719616102932
95.5089677948674
95.5854109998762
95.6374291020667
95.652502231426
95.6721129463218
95.6932552225304
95.7112701062349
95.7472742754743
95.8046414089097
95.8725799630295
95.882928206425
95.892158122861
95.9526988554905
95.9850833166495
96.0124352390187
96.0350083588341
96.0484647891772
96.1042241594875
96.1273556186296
96.1477132697763
96.2090077247607
96.2342419567283
96.2825992823122
96.3060866779464
96.279217003456
96.3029522270593
96.3650464803646
96.4315318700176
96.4853736640048
96.5140934121041
96.5634081285121
96.5857261005873
96.5485172447299
96.5734410465878
96.6252909868025
96.6535682333307
96.6962101119743
96.7467787645878
96.7716983857078
96.7893069365295
96.8124586171628
96.8606330113581
96.9291192411032
96.9525817530323
96.9498188690563
96.9675697615279
96.9858975452965
97.0233725031182
97.0880808456253
97.1170222761862
97.1002101791556
97.0915248812267
97.1146091303369
97.1398754291746
97.1984402681856
97.2129155387152
97.2065547166124
97.2485756438081
97.2975931955513
97.3176254767107
97.3214516624302
97.3576271904569
97.4010711153528
97.4231651992652
97.4412196447326
97.4108148585399
97.3745561074008
97.4194480351343
97.4671168496534
97.4854898457538
97.5332843143604
97.5702833518336
97.5688414173803
97.540814992892
97.5208216286728
97.5454027889483
97.6061381602447
97.6282074680101
97.6263784701808
97.6429001144347
97.6797201615698
97.7147087246583
97.7204015408421
97.7414279397733
97.7337049539781
97.7497625266156
97.8246352163027
97.8346185241695
97.8068616641069
97.8404706750037
97.9048336841612
97.9387370951779
97.9301352648246
97.9406109811646
97.9839928102966
98.0000408849241
97.9886917916067
97.9675109886439
97.9795529210509
97.9831450024963
97.9911332311246
98.0005354321638
98.0193660173713
98.0608437159902
98.0741606028485
98.0495915004511
98.0729651677552
98.122794647542
98.1379208789976
98.1215368887248
98.1239128427118
98.1516853845973
98.1768420675644
98.1893837198255
98.1852316272262
98.2019252918143
98.2208179694673
98.2547590246224
98.2778230444441
98.2371856778562
98.2086174852782
98.2379360280344
98.2699503644307
98.2906158654364
98.3114498773576
98.2960455119379
98.3089769621566
98.3426710477409
98.3392964428778
98.3086500249676
98.3218457476615
98.3745678808555
98.4240847288956
98.4232926294967
98.3886506253601
98.3706417014446
98.3689829910317
98.4019444466871
98.4409731416053
98.4351116697437
98.4728023914652
98.4789114920897
98.4603547933651
98.4838201670205
98.4847263338595
98.4738115716816
98.5121696723747
98.5322281347212
98.5401694120437
98.5298505759954
98.522062825664
98.5393750051995
98.5318062883488
98.51515440667
98.5159266207898
98.5164255658345
98.5296523861644
98.5385838840951
98.5803068113813
98.6402505338447
98.6180023282851
98.5880861543233
98.5978096706961
98.5944410370102
98.6352550988165
98.6561863346073
98.6238288937976
98.6041767885798
98.638531208652
98.6433546054307
98.6449162227297
98.6658348298197
98.683092644806
98.6846177622388
98.6647970780266
98.6513739016992
98.6896166515139
98.7158831123639
98.6716531625491
98.6955865332431
98.7316826900937
98.7178963461995
98.7054590673875
98.6837128244923
98.6881411478592
98.7285110475932
98.7670628651511
98.7988269904252
98.8073125794825
98.7746769791232
98.7654561580663
98.7841845292551
98.8023377967086
98.7897919794386
98.7530511659408
98.735329055125
98.7508581382789
98.7816779537611
98.7586393470469
98.7396957556056
98.7745551894047
98.7868045637866
98.7789095909936
98.7655124813343
98.7522955166096
98.7494575841625
98.761893602203
98.790531655008
98.8278713288638
98.8353539175294
98.8319576663468
98.8500833136089
98.8305757098996
98.8369880021902
98.8500484248052
98.8567315181496
98.8581718086307
98.8506930620352
98.8348673611774
98.8417603209507
98.8612803160857
98.8921184788469
98.9047286179719
98.8816219487741
98.8421848293415
98.8507284830878
98.8748505458269
98.9037868454756
98.8915954507105
98.8839237005149
98.8844836634254
98.8934505233175
98.8905100700676
98.881558044695
98.90057299099
98.912135562291
98.9371035586736
98.9567074558226
98.9327526133262
98.9354059790836
98.9663126924507
98.9549187849191
98.947479408735
98.9448899488472
98.9301664061345
98.9605631335391
99.0033967793724
98.9782039114291
98.9542016956014
98.9663381448028
98.9897478542729
98.9887120976353
98.9905016681963
98.9747054665008
98.9669200904996
99.0249783189805
99.0665167835621
99.0520933844967
99.0374056814081
99.0288177727369
99.0121620380452
98.9990289193613
99.0092662439201
99.0099204041851
98.99287236344
99.0078912192106
99.0190975532284
99.0344261759785
99.1021905399893
99.1194585761452
99.1124532071704
99.0891488668474
99.074687632906
99.0836529629964
99.1202304225077
99.1484927778283
99.0713944516343
99.03554836145
99.079068304312
99.1292287809165
99.1237686651454
99.1135088518761
99.0739015408691
99.0975102025424
99.1442576193429
99.0864892580391
99.0746482429534
99.0839989314367
99.0848711767758
99.1147137267702
99.1444881681472
99.1742827345973
99.2205760045068
99.2140522961749
99.1838193237858
99.1417384606416
99.1469477307287
99.1463258225561
99.1609516084447
99.1472872389881
99.1721911693113
99.1652791638211
99.1214414289175
99.1150907059678
99.0870207944221
99.1041681412443
99.1191870811339
99.0994792551822
99.1472120310334
99.1460374773275
99.1187184066168
99.1213712731915
99.1040666459177
99.1495121503891
99.2024596970314
99.1856280466067
99.161058434116
99.1490223390165
99.1709219097548
99.1927587128478
99.1569694358069
99.1598736587877
99.222519893175
99.1950629817854
99.1436385158484
99.0898679712604
99.0570990922681
99.0115697482754
99.0140710898628
99.0610311866004
99.1387689278907
99.167986961516
99.1099930904726
99.0787904912832
99.1375523837837
99.1252746153404
99.1077927927471
99.1451986807087
99.1222317379357
99.13808815334
99.101572940984
99.013767536985
99.0403617892006
99.1231325000998
99.1264456900589
99.0782240613204
99.1064990867329
99.1132471730808
99.0720731339203
99.0764945191526
99.0393826050853
98.9677610197673
99.0245253925948
99.0893857098054
99.09471924964
99.0797793940511
99.0887896410822
99.0517939060665
99.0431354744964
99.0418509112086
99.0651739378119
99.0606861531762
99.0238748928479
98.9896556176792
99.0142287068547
99.0466034760632
99.0538491981215
99.0747609571892
99.0822632872225
99.0382884344424
99.0466638294511
99.116912663181
99.0928935493522
99.0440600516042
99.0255594024412
98.967234177305
98.9393713749809
98.960792666717
98.9477395700107
98.9814065558654
99.0273661671494
98.9777201828291
98.9446547577838
98.9547888407072
98.9795747583138
99.0125087626696
99.0106793457717
98.9599139770177
98.9303920016192
98.8954413645766
98.8716337219672
98.9126230580162
98.9663288452194
98.9510945685909
98.9860570738498
98.9676261868055
98.9355852459703
98.9186187646702
98.8999980383265
98.8955698039042
98.9369721354822
98.9350309743282
98.877017057386
98.8465263384986
98.8678305495094
98.8736713141521
98.9048462828832
98.9186889570309
98.8484762036354
98.7490362306733
98.7495049269955
98.8203456794441
98.8651947301735
98.8504760297322
98.7708357077591
98.7405412649741
98.7797219264096
98.8027484884248
98.7951963679186
98.8116177748506
98.8688729027047
98.869556723965
98.8082919822011
98.7564265984931
98.7432599118928
98.73887317827
98.7162213245546
98.7040915776738
98.711519086428
98.6957620378105
98.6950924389828
98.7182827855527
98.718733861698
98.7121045562829
98.6975238790598
98.6794842004194
98.7035531561413
98.7282335551094
98.7288803052452
98.7116318092388
98.6942743415255
98.6868494481517
98.6624125759898
98.6237356561235
98.6141165740034
98.6376578124652
98.7068466777674
98.6708141205772
98.5940417980679
98.5874593771239
98.6467239074798
98.6657892091007
98.6321823779186
98.6191631622812
98.636872438626
98.6337136501079
98.628432581489
98.5822644752778
98.5627443097959
98.5689267135913
98.580057342341
98.5741322258881
98.628478461986
98.5784073070646
98.5420518047126
98.5757161246902
98.5526043205413
98.5402976972527
98.5501574054847
98.548564060096
98.5419253840712
98.5215712626193
98.5218087387076
98.4946352775558
98.4486638048097
98.451254659707
98.5013570644666
98.5132593906955
98.4926934465281
98.476302205787
98.4369352697608
98.440632291026
98.4782678647622
98.4207376368952
98.3644507116936
98.3776748809423
98.4313196785485
98.4017653642293
98.3910196187954
98.4104847160689
98.4008720441935
98.3605060402237
98.3548720059068
98.3654186433969
98.33750918791
98.2937755990558
98.3348426018291
98.3511620349994
98.3218650549863
98.2664967519794
98.2985986789808
98.2820817825064
98.2187935932997
98.2035259325597
98.2259853849949
98.2187065724232
98.1687508233459
98.1517051655388
98.162159094232
98.1584848334799
98.1548763855587
98.1514365932479
98.1725768992418
98.1337284367096
98.1007173977104
98.1178862310102
98.1278491716732
98.1017988080687
98.0946394016048
98.0710017483029
98.0792903311568
98.0772654611644
98.1008828649478
98.0782178966679
98.0243138697263
97.9936740518316
97.9853912317712
97.9881138330813
98.0349104708284
98.0175963185458
97.9944320052916
98.015578734449
98.0300572536455
98.0073072851901
97.9866562971944
98.0048065849044
98.0063977764745
97.9664941495436
97.9674917083418
97.979380873155
98.084334408803
98.1513261145971
98.1177775259397
97.9907641208615
97.9686795942195
98.0465385073769
98.0372474687344
97.8875309257448
97.8540833503148
97.9074672510569
97.851042661805
97.8027614357431
97.8272622898993
97.7832632834643
97.826866600064
97.8305588081712
97.7412958494016
97.6264414471732
97.6017303986189
97.6106442341966
97.5086870642216
97.4343698280132
97.5613955394695
97.6882329507849
97.7252160297888
97.7275117172722
97.8054592416596
97.7425362742969
97.7101517823488
97.6605040429553
97.6357541143998
97.6052357729695
97.5816663575021
97.4950992263742
97.5295922900385
97.5386206075035
97.5804551507617
97.5625532070188
97.5797939386557
97.5439251767439
97.5068049498249
97.4258896355933
97.457716549824
97.4711119187145
97.5088298057223
97.4426016132211
97.4110025083893
97.4075481839407
97.5325045575421
97.5396592451855
97.4189421109457
97.3819250584746
97.4033231342019
97.4480190547323
97.3526735654208
97.4457057777856
97.4748825304631
97.4141610569576
97.2584224142672
97.3528634496557
97.3443139211275
97.4212906529352
97.3918486994566
97.2966360588803
97.2157578928633
97.3099550695399
97.3419842833718
97.3121378193383
97.2834563353058
97.3091829740384
97.335838611373
97.339385810646
97.3165246865698
97.2655141896745
97.2734049985955
97.3138905710494
97.2752405508755
97.2952733760826
97.3067984326727
97.3444521724052
97.3268017747948
97.299220651304
97.3441399417748
97.3366655894484
97.2967402947632
97.2846144665166
97.3033631977387
97.3647837011918
97.3813401993096
97.3953466931931
97.3774255931776
97.3497055984094
97.3692171306922
97.4185526297542
97.3928684855971
97.3829301859944
97.456482328798
97.4981920007877
97.4863876754153
97.4281079493117
97.3524702063132
97.3927384866222
97.4299425195167
97.4412850142876
97.4925318679139
97.4553709867615
97.429978828117
97.4706000915434
97.4738049437214
97.3793372311466
97.3359957614712
97.3788819994475
97.4384246329759
97.4599509936236
97.4479539817167
97.4635262838399
97.4546072115084
97.4072628380526
97.4281829770493
97.4398814296131
97.3538867008442
97.3211459100949
97.3615377196464
97.4677548187307
97.4268294266317
97.4207565588067
97.388816158198
97.3767872190889
97.3603841336387
97.4083931473723
97.5168247527821
97.5686470966703
97.4875811498644
97.4248052042561
97.3347827954245
97.2507405448504
97.339444572129
97.3699592999914
97.4124321439881
97.499522315435
97.4750349272503
97.3101038870306
97.3196175882852
97.4603906522461
97.4952536731572
97.4652399632658
97.39074746902
97.4374457908614
97.5237082767257
97.41986498827
97.4208277142421
97.496528738747
97.3532286069695
97.3069150090074
97.4311174219272
97.529067579764
97.598787407932
97.6215699845965
97.432685448368
97.3193113285648
97.4107331967467
97.4163144233905
97.2441366143608
97.2510720083304
97.4499653000683
97.5923075729372
97.5667095549928
97.515058923311
97.530163221618
97.4875296563705
97.3689252594325
97.4417206777767
97.4366470629472
97.4044838949524
97.6083286892819
97.6316048043853
97.5015537952476
97.4697853116661
97.3610271336239
97.3807743906469
97.5380752202697
97.6632230536054
97.673528859312
97.6512643313224
97.641469093321
97.5235500296948
97.3981017449135
97.4895221830619
97.6384153400836
97.5832918760088
97.5798179308359
97.5059668651951
97.4684489301577
97.4726285614013
97.4628265647824
97.5115036536959
97.5585653804738
97.4653499495539
97.3442634305648
97.498650772396
97.5382325364902
97.6778017629776
97.9225295892991
97.915949928653
97.8594036168356
97.9011572927224
97.7605670525757
97.7072063468823
97.8325102041127
97.7474796595912
97.611460847997
97.7058461062455
97.7302040779912
97.6688453203926
97.7360560901204
97.6995257690747
97.6993119998041
97.8997057017676
98.1669434935226
98.1759628158311
97.9201291621258
97.7187794245317
97.8832655153376
98.1289365170018
98.5086825421978
98.5899160691475
98.1145962565639
98.0514072877046
98.2114498157399
98.1236441701465
97.930896798282
97.7566730056863
97.6449854236545
97.4844908426727
97.4630076443307
97.5174825755417
97.300117611325
97.1265901284761
97.1733027705312
97.2658467184642
97.2008082758576
97.0905593085458
97.0807389428364
97.1770110325294
97.0279729067153
96.7096044954468
96.7589379879035
96.8266342807425
96.81767630007
96.6136337683432
96.4646672608429
96.5251798205949
96.4769261781268
96.3640787826271
96.391423944604
96.3630647575873
96.2086554834237
96.1843632676784
96.2258440509009
96.2039408994004
96.1920937888765
96.1115273493596
96.0882196035647
96.1181502716355
96.0964908718947
96.1288724815851
96.1079517106368
96.0612839196194
96.0299791034681
96.0550988339339
96.1410103262391
96.1328278931049
96.0954123892047
96.0122706514229
95.9485026239221
95.982617789944
96.0634518660651
96.0464414918137
96.008671719884
96.0691588099765
96.0880874008693
96.0621010439058
96.0253166636678
96.0238788565474
96.0622534588474
96.1383148124688
96.1793919361567
96.1035963716897
96.0002527390522
96.0520616432658
96.1528676045239
96.1773272157684
96.0852543221808
96.0167878386671
96.07581200584
96.000740839092
95.9845047428345
96.1053897647272
96.1218952551056
96.0161985003568
95.9219615019373
95.9731129248225
96.0737348434217
96.1217636132423
96.107239821097
96.0745141416845
96.1018094433369
96.1044280083665
96.1456975604685
96.1326185854382
96.1229486456763
96.1580663977292
96.2339489692455
96.3129502641534
96.3645377325537
96.3688575988438
96.3595362483102
96.3770553789259
96.2679224368897
96.2799603311939
96.3997343164349
96.3733977615107
96.4236809780706
96.6486426222016
96.6429134940146
96.5593624163977
96.593761733149
96.6214705666183
96.52981927098
96.5111143501923
96.5917101168427
96.8337536002712
96.9625096936062
96.891433705176
96.8539823644934
96.9300048229974
97.0443148728633
97.0260231118405
96.9383113443529
96.9502764477868
96.9113092120804
97.0307248830409
97.2505782576149
97.319927782988
97.4718407696793
97.5572924654565
97.5019616741721
97.4250645829017
97.6182123931863
97.7060340722266
97.4980950480005
97.5082790398115
97.7462292859991
97.8470510058287
98.0193758750014
97.9257870987366
97.6863961193111
97.7863855481092
97.9588146705558
98.1350863169799
98.0097356125939
98.0853245067867
98.0826252323108
97.9745415539061
98.1697925652845
98.390571256501
98.4704983551891
98.3079753700395
98.0397347887534
98.059088724488
98.2369079088892
98.1891025745866
98.0108523628576
98.020905368137
98.1382170163002
98.3383949125804
98.1753190676971
98.1480655850862
98.3971711288497
98.3573387718536
98.1397513880542
98.080032775705
98.1730749833946
98.2678563932144
98.3244593429205
98.2506852980689
98.0135257539961
97.8571476812741
97.9091412330216
97.9867112105832
98.12011181425
98.2327695249161
98.1293519560538
98.0023309238437
97.9556155447199
98.0689265514861
98.070590520801
97.9477864320429
97.9293215554884
97.9403894123321
97.9451653336396
97.8779689088534
97.87235035203
97.9840247717694
98.0684806926076
97.8863136792456
97.8434728684898
98.0300952644661
98.1298533789578
98.1516139257809
98.085205605475
98.0613406568956
98.1464890616052
98.3272005876859
98.4953561440376
98.5694409086588
98.5509733305029
98.5416746841318
98.5038782801601
98.6106549904165
98.8156765076919
98.8039891581363
98.6573510796375
98.5662568444738
98.4137731250232
98.3092359040692
98.3001280234321
98.3881244924232
98.3750795146498
98.4097771682449
98.4181510790748
98.2085949891862
98.240676096907
98.235591191902
98.26530616457
98.3672780143375
98.3438329479183
98.3123338258338
98.0678107023289
98.0414571301737
98.1946489177413
98.3135109122064
98.0954145292447
97.9056233378634
97.8403424083184
97.7570158793794
97.8532719511208
97.9442875556534
97.830257689869
97.7643156084626
97.9723067024803
98.1611211459695
97.9490163464277
97.8842236291375
98.0286751606198
97.810531142148
97.5409763813653
97.7667100469154
97.9301673071687
97.6619435167517
97.5438742793848
97.6290132305347
97.6693932656904
97.6605874594466
97.5842302839189
97.6940156070998
97.7512426624145
97.6804606633309
97.5906760666431
97.5436324779306
97.5621093394216
97.5554604936311
97.5141780072959
97.5662368095985
97.6454462287219
97.6147424449857
97.5879042447582
97.5961641605728
97.598916231221
97.544584833319
97.407154874831
97.3240515419373
97.3030903751818
97.5106760508553
97.7790588851906
97.4844638150791
97.1920226198862
97.2619045414743
97.4097652488413
97.414664964148
97.4207997453701
97.4601233823879
97.4758435969972
97.4022747670431
97.34736193785
97.3715878375077
97.3613389790483
97.3370936498815
97.4174789256234
97.5543303859126
97.4953809023491
97.4268655733697
97.5047152256013
97.4723388793071
97.3719502340048
97.3914002123248
97.4307208611881
97.4149393021018
97.4754921414422
97.4525199760293
97.3289463716877
97.2756252854173
97.220780447731
97.3072061853656
97.5311948057429
97.4273606506999
97.0548678062141
97.0751299795989
97.2108489873525
97.2704710699965
97.2668863447719
97.2947606857478
97.2911334077121
97.310766752232
97.290154857768
97.2933940751903
97.3069087665844
97.3314112955547
97.318824522708
97.2465327019221
97.2208566994879
97.3021205573116
97.327649523971
97.3194077420063
97.2889449418622
97.2685315546031
97.3958079289118
97.3484306125986
97.1052936694932
96.9931771537611
96.9112546043104
96.9117508549281
96.9473312383246
97.0553715842616
97.1287014013735
97.1656563961249
97.1202072373468
97.0642601341812
97.0711900940012
97.1051139983258
97.1284739672436
97.1523053970846
97.1318250829513
97.1042128734311
97.0813882853363
97.1248331019804
97.0741109889806
97.0863108723998
97.1202937321444
97.1861990413366
97.0852161308199
96.9184772201961
96.9838731694359
97.2876957391052
96.9597774797138
96.5428665590603
96.6108285725406
96.741926803351
96.8977277877353
96.9136800517356
96.9034707305695
96.911615391516
96.8053826754618
96.7660605840322
96.8508059692539
96.9116003314301
96.8597281050365
96.8712959125359
97.0712154653139
97.0202864729713
96.5329738555914
96.4008558066856
96.5386954275139
96.8123831116102
96.8477839492586
96.4485326092291
96.4345131671728
96.5795507049833
96.6659003135913
96.690298301746
96.7171130670052
96.7207743338848
96.7077138141376
96.6233455306844
96.5803606555978
96.5751911401677
96.5863680143565
96.6326400828341
96.5646448358611
96.5759869549886
96.4738621554877
96.2954627529131
96.3634928329074
96.3498358906826
96.3354127013472
96.4074770651334
96.3718345789492
96.3479765811198
96.4873424357442
96.482656920016
96.2865640462568
96.2794958473334
96.1039761479273
95.961296981062
96.1474454628427
96.2157869290378
96.0693069205621
95.9799453127379
96.2910016957403
96.2757090393756
95.8553707563527
95.6838360677888
95.522987013964
95.7004980076386
95.8428810788504
95.9332979772248
96.0108372052691
96.1464076271883
95.8285847624027
95.7083945249999
95.7860736282586
95.9566272601569
95.8429383250855
95.566285059866
95.5135387184741
95.5232334854137
95.5959543486748
95.6671121699523
95.4122913294348
95.505734555613
95.8112260782588
95.519775132859
94.9658200646581
94.6194893901711
94.9879760670829
95.4056281244544
95.0193014318161
94.8661664771135
94.9989158469027
95.0848898616375
95.0357566736117
95.1892650536345
95.2013247417789
94.6800009050289
94.5897543173571
94.7241434150713
94.7778146110304
94.874682919185
94.5506713174943
94.3366118770519
94.4200545496277
94.4852860513185
94.5779084186442
94.718160404288
94.1353721674676
93.915779794072
94.0075876919035
93.7364082433264
93.6035700678862
93.6284302358802
93.7231975264201
93.8007734274749
93.76354166911
93.4022503501894
93.4056525215986
93.7884290431893
93.6293141440283
93.0305347792434
93.1045202519701
93.1264645318288
93.3013149108588
93.5435137180043
93.1542318775866
92.1551098033553
91.9425242339074
92.3152436621481
92.542731745251
92.155111917414
92.0167375593215
92.0866621644934
92.0903205207927
91.9914092668692
91.9221984239362
91.8333876324559
91.5428082966586
91.3513270497664
91.2445281389316
91.1727324557215
91.1771935839163
90.972379856924
90.1889485380754
89.635557850898
89.9629800985756
89.7375837386407
89.3665654912717
89.3146455693169
89.3962862501134
89.3863028493568
89.0672144890287
88.7807576477009
88.7000764534082
88.6355855484432
88.1477070447413
87.7580204705124
87.5658280428715
87.1381501048003
87.0647375664517
87.1914229682475
87.2065583020053
85.7510349798636
85.1891819175874
85.416929544236
85.6572434670938
85.4783260395726
84.2644991273079
84.1063513320018
84.3691925873969
84.2546404020411
84.0833743613743
83.7472965300436
83.2700061663161
82.8855358373319
82.4499226529566
82.2007568211913
82.1184106950916
81.6465964585851
80.5803192871423
79.8178658870578
80.0025366639166
80.2787769086315
79.9984622224048
79.4943795247965
79.2568987336522
79.0093290229087
78.8559559358065
78.4069605291815
77.3781232439592
77.1565716432954
77.2045784137562
76.9134698975655
76.2440478610615
76.0566838968217
75.4223565223387
74.8059830901197
74.8134944959821
74.7638652617113
74.4943140672462
74.13050032428
73.8101429043459
73.0521711110027
72.5569052902753
72.4728885796496
72.2479889321081
71.9372286716242
71.5824567396294
71.1904066559981
70.8180698784348
70.4188530666774
69.6090464204569
68.5427939138014
67.4805821849754
68.1564769527022
68.9124405126497
68.9336188851642
68.6208310050161
67.8721666134329
67.3281223563737
66.7733050652728
66.7505510309315
67.1834302673096
67.1985091601108
66.9807513564304
66.7330268191016
66.5071038507642
66.2491034223896
66.0094208187258
65.5154531900435
65.2123590971012
64.598811726653
64.1637584460446
65.3280714658424
66.0282092814542
66.1879491948575
66.195773130258
66.1705059691347
66.1304248648102
65.9379256743325
65.7632102568954
66.192178164839
66.5560619472555
66.7141282331128
66.4019454134732
66.4851053275241
67.3345381274702
67.9374818083216
68.3081517484577
68.5705173262883
68.7325500988179
68.3036618198649
68.0011810854816
69.3114878276611
70.3518139647836
70.8974464848281
71.2806738246395
71.6444965956545
71.9470421445087
72.1069020031083
72.3618275802089
72.793511432393
73.1130116356716
73.5799866788437
74.0587358336963
74.456660226521
74.7056692399265
75.0235792563564
75.4101295124472
75.8112300704141
76.2215764456436
76.5792427351361
76.8989485463433
77.1661364268602
77.4317721681375
77.6985116361371
77.9839793110318
78.3779301809895
78.6966525841517
78.9870354380466
79.2526866656106
79.5137182135508
79.8116789430462
80.1067688493169
80.3490674500168
80.5673071931163
80.8190850497129
81.0593478483203
81.275589021183
81.4842761002709
81.6919462435454
81.9040778192976
82.1174182530771
82.2623865408721
82.2841697520657
81.6541650013227
81.7500171771865
82.7497815520411
83.3017560563549
83.5806698088866
83.7503904778825
83.8682051973028
83.3199062291128
83.1097556652492
83.8211089415478
84.3140567003346
84.5549217098562
84.4561941753108
84.402713475614
84.7379411857519
84.9176821486188
85.0729616406793
84.6005768695618
83.5707368117991
83.0085759904447
82.9970104808324
84.5204418995982
85.7076818642538
85.8410116026494
85.3022358403605
85.7194115859496
86.0647061043297
86.1876066901668
85.8368708096252
85.6363988543036
86.0446124528929
86.2696051824823
86.4637802456373
86.233714266622
85.7853361031396
86.0153621586504
86.0583410287664
85.6942987049547
85.9046939288061
85.7502202385272
85.055926608601
85.7375548341944
86.8514446697607
87.2317444429691
87.319817038365
87.2776967576018
86.5865915730681
86.5799716869039
86.9116390161687
87.182633649903
87.4776559446626
87.4080928080856
87.1410000538089
87.1496157141855
87.3080482791952
86.8601936252412
87.191599710785
87.5040947414085
87.2557891321329
86.8274866279319
86.4872155367933
87.1274670355156
87.8704069178235
87.7695308104559
87.1401122834911
87.3709514744329
87.571715772034
87.9788599504949
88.2183815384856
87.8150297774816
87.9089892557717
88.0275014864883
87.8385164259629
87.6800038017291
87.1725450928331
86.5151149491843
86.4300130789586
87.4651549668455
88.3342309552168
88.6003562328425
88.5523357795255
88.4951464294796
88.6249690780897
88.2963312328173
88.0471687330444
88.4253063476305
88.0177148051817
88.0069590238417
88.511358663469
88.7198692669339
88.8320343140195
88.8311450727366
88.4359566144825
87.9271467499626
88.1368072443835
88.513427871299
88.3455751096263
88.538617683971
88.7938154730404
88.9276107610934
88.9361669118569
88.9614105955788
88.7906644325535
88.7517633579375
88.8946442432619
88.9555389509895
89.0214043732405
88.8130776579388
88.3605016758135
88.7518108547099
88.6901722307587
88.3565459294972
88.0707616006385
88.2239608572429
88.8429152224756
89.0865507289116
89.148369384742
89.106316044158
89.1619261920891
89.0630026061428
88.5100913655577
88.7182627158946
89.0260072811024
89.1180230714128
89.188678496805
89.2184421129937
88.9153142372625
88.6173520331243
88.2482706393687
87.895710835636
88.4419052294577
88.8897177161713
89.2841383647774
89.307862354268
89.1970309430739
89.2323999294146
89.3083329010017
89.3256958793501
88.9437077234664
88.9699128469986
89.2518887905417
89.333578873789
89.3742848085822
89.3843923416848
89.4035579958608
89.3999113655247
89.4009248540454
89.3903557745103
89.4435326151835
89.4809507003434
88.7939438280878
88.671674109955
89.2068940097005
89.4172346596786
89.4850197936822
89.495693670036
89.5498633581377
89.291162305198
89.1437241902998
89.3526250169198
89.453069824057
89.5117242802328
89.5540847729258
89.4776254376568
89.1305478941807
89.2625369900759
89.4496697506082
89.5958716523903
89.4562710676385
88.7453856307984
88.9008392031898
89.0861121678867
89.3229648178992
89.4685406145926
89.5518585232248
89.5818471943869
89.5504664498727
89.4689790488668
89.4938629018671
89.5142960482141
89.5326157687683
89.5690111349632
89.5866477175276
89.6211563498203
89.3472449881815
89.3121258222599
89.5402706110224
89.5945215769121
89.6357305109564
89.7162242765023
89.5054044017348
89.1880998655106
89.3647083202239
89.5288166930323
89.4934730024285
89.2626568792265
89.2759724815343
89.5765548188964
89.7192705541551
89.7452386008748
89.7620076648853
89.7661982579967
89.7348877922632
89.3617099503012
89.3844202692638
89.6328001422216
89.7671556484816
89.7993361537576
89.8162178818574
89.7850460579795
89.800967913868
89.7748139615173
89.7692828938794
89.7371962480265
89.7729964997251
89.8519792912088
89.7647903521918
89.6133362072765
89.5647889510576
89.7110515193794
89.8483425376223
89.8841010130875
89.9156152916836
89.7807676501906
89.7499081909407
89.8268215210675
89.8655844956501
89.8741071254417
89.8994924152787
89.5194473462862
89.4485900332686
89.6184830229221
89.6187797922799
89.7819993301401
89.8217426744492
89.8075219755765
89.798396872871
89.7834616553485
89.6922782183353
89.697561756513
89.7280801429522
89.7256704577215
89.7257370334541
89.7162220246286
89.6917417589624
89.7042518307863
89.7026408627359
89.6869331653266
89.718731573809
89.7258337102145
89.7052413369498
89.6944824905527
89.7416538717691
89.634387973141
89.3971536464937
89.3322576901912
89.4414071744235
89.6077335476127
89.58877382493
89.6686684807368
89.7224503716445
89.7445410350069
89.7206819948759
89.7072176593997
89.6986886047705
89.7049757682756
89.711771954061
89.7170163026977
89.7195726038655
89.7058836821558
89.6819551207901
89.6937980741934
89.7026410860212
89.7063082411724
89.6911454445846
89.6657437638492
89.6189461731234
89.6016526057231
89.6387274802385
89.614253539438
89.6696996189182
89.6707729277693
89.6527528831857
89.6415558966227
89.6424718311224
89.7004979134997
89.7275056139831
89.7282679645303
89.7101539608984
89.7092324044563
89.7177697216032
89.7315029034179
89.7514028785492
89.7460006839592
89.7261217807227
89.7190683926867
89.7212964812054
89.7333276220911
89.7376434610722
89.7207546999176
89.7088903896544
89.7164714371074
89.7338235109354
89.7325467043112
89.7301344734963
89.724907497308
89.7255042658687
89.7178564332242
89.7185143561893
89.7102033317398
89.6833556587801
89.6830988673495
89.7068960124393
89.7175907780615
89.7142618210468
89.7316015619439
89.7448079170921
89.7310287223176
89.7287262818194
89.7423610672859
89.7571114418224
89.7526751336031
89.7599209469881
89.7550350364286
89.7518848563013
89.7564924132025
89.763229422111
89.7301376398059
89.7174569548523
89.7359981188995
89.7392936283302
89.7400170301357
89.7452501541913
89.7448508999575
89.7446540805163
89.7549612468892
89.7483815294418
89.7451193231229
89.7462447487772
89.727532577412
89.7032528939882
89.717906132181
89.7282224018944
89.7341608367077
89.7449679915772
89.745544597461
89.7344223691633
89.7383978941375
89.7421926885415
89.7371478488529
89.7352982986559
89.7371562221066
89.7373899066019
89.7449228348559
89.7395443046603
89.7234515625489
89.723650031389
89.7284105639735
89.7282050563242
89.7190157637433
89.7055192397176
89.7004674898259
89.7051849421412
89.7052733593494
89.7041268591869
89.7142599737265
89.7113374601782
89.7004216842567
89.7082901152698
89.7182222019236
89.7016200627495
89.6819499954481
89.6832213664257
89.6877474957212
89.6863163327825
89.6801544796077
89.6797668513983
89.6800179220016
89.6802575892501
89.6819097490156
89.671503389261
89.6668983005615
89.6844575047763
89.6942322309676
89.6767836809817
89.6670401866895
89.677686170847
89.6745432982113
89.6715842963201
89.6829435844358
89.6909983455888
89.6804058828543
89.6690888899233
89.674228469297
89.6750463983167
89.6794005118391
89.682907551148
89.6755625646983
89.6773005405276
89.6873786265007
89.6862735317411
89.6768052466005
89.6775298723334
89.6873728462267
89.6913425502653
89.6910892975988
89.6912123892406
89.6918659489465
89.6868785025469
89.6768938447332
89.6688550509658
89.6712011695597
89.6758519050542
89.6774286336322
89.680256452752
89.6824294456025
89.6749695577864
89.6655486890994
89.6617226667665
89.6507868146261
89.6364657947007
89.6267122308269
89.6298933120656
89.638692731292
89.6385621421627
89.6309901782466
89.641077190216
89.6537541335238
89.6441611639087
89.6342136266552
89.6301403983235
89.628054151692
89.6234942385293
89.6216609732999
89.6222680293331
89.6215191344873
89.6162531777977
89.605257180129
89.6016109804023
89.5976626069924
89.6005656886515
89.6065429579205
89.6097831122597
89.6045834028317
89.5960419822416
89.5993071948846
89.5983281974505
89.5966538320305
89.5956958440602
89.5836892693314
89.5704892656738
89.5679865542955
89.5775598604354
89.5832533859009
89.5789363104637
89.5667817932719
89.5520604153321
89.5420885789751
89.5420104323626
89.5349902390798
89.5260912652178
89.5209979843576
89.5166021355613
89.4997345942708
89.4967609602809
89.5049431627585
89.4910417704346
89.4709707669258
89.4707141255914
89.4735739114402
89.4550620453471
89.4483982142043
89.4522292616905
89.4463914820517
89.4439764836798
89.4350069776014
89.4236331397933
89.4277441878506
89.426644008405
89.4142557642434
89.399385467094
89.3948115017339
89.39122490686
89.3768458664444
89.3672888256692
89.3589553503621
89.3379373539676
89.3253347692325
89.3305543881107
89.3296232830876
89.3258302152537
89.3199395684652
89.3093715328174
89.305747726231
89.3045453493152
89.2953813654495
89.2854809870804
89.2771270889494
89.2689533560436
89.2395993226708
89.2065556599725
89.1908511699751
89.1785015639459
89.1743527666279
89.1617909184923
89.1429185900234
89.132571666236
89.1060528510295
89.0867775291878
89.0814054935745
89.0629206172544
89.0392957947747
89.0274091242948
89.0236743690784
89.009763078815
88.9831014574315
88.9677049675458
88.9541801226983
88.9433883093004
88.9473213067253
88.937264398716
88.9118912469383
88.9094881762729
88.9081128220844
88.8916480188646
88.8725148306052
88.8574242304795
88.837725191412
88.8144642737003
88.8053524040173
88.8058983129522
88.800850100721
88.792488639475
88.7933792381964
88.7880509902098
88.7726551697867
88.7711188860341
88.7731014755445
88.7715552355949
88.7729096474642
88.7519122691066
88.7165550428643
88.7125312813074
88.7183278034878
88.7007959614223
88.6871637983412
88.6922976540954
88.7020487222589
88.696237505205
88.6775369282878
88.6755056602969
88.6770094253492
88.6725450421645
88.6673932407698
88.6745395962388
88.6732281134004
88.6581998993272
88.6378114625078
88.6239864877044
88.6305190069018
88.6289553395771
88.6101733668514
88.6061659494206
88.6040635307533
88.6067107051456
88.601088902184
88.5757411482496
88.5566944923145
88.5506520649191
88.5389412001865
88.5289821299978
88.5267824388288
88.5163883303736
88.501463906171
88.4826245121796
88.4658751574494
88.466012693653
88.4539969966337
88.4307400424303
88.4199891907342
88.4207432751432
88.4070742511126
88.3914208474881
88.3892390186241
88.3869794324031
88.3780128709362
88.3755336618863
88.3744766075153
88.3747143583468
88.3792445730693
88.3799401314344
88.38322279427
88.3891237970845
88.3947604604109
88.3986502598714
88.4070770923125
88.4160581271001
88.4123505259868
88.3932846461398
88.3937628516073
88.4065808952698
88.3917598306608
88.3873302365656
88.3932420844568
88.380537318598
88.3517685262842
88.3314475884301
88.3241595819236
88.3176258855758
88.3061101797382
88.2887724578346
88.2669243154504
88.2525278242755
88.2515165937436
88.2220670582936
88.1799699731154
88.1565975085856
88.1332661636605
88.108624197554
88.0940760997348
88.0755578710161
88.053986036753
88.0397526382184
88.0155497057632
87.9933609320603
87.9628161077664
87.9055531995888
87.8548000170139
87.8425905392109
87.8285827470348
87.7823697310108
87.7416343934897
87.7225991386186
87.688426676538
87.6338860679295
87.5833243332743
87.539347610704
87.5012283331234
87.4544732932388
87.4132558716013
87.3805476509354
87.3249446944485
87.2747426735638
87.2403388465652
87.2128839655525
87.1453355716992
87.0580301945503
87.0206012447625
87.0064768529473
86.9517761734677
86.8826063075218
86.8329924681086
86.7871547529984
86.741201317366
86.6812253558228
86.621685178168
86.572956864905
86.5243720221817
86.4733346676275
86.4211142852323
86.3597592883332
86.2809759504908
86.2115109469607
86.1556997234747
86.0989500269479
86.0256317229245
85.9570664228882
85.8961956703146
85.8305556313586
85.757039170481
85.6851383730892
85.6137367215522
85.5541932571912
85.5104719074415
85.4459298970294
85.3682357713787
85.304607174743
85.2293198094501
85.1569641920744
85.0813605957844
84.9952002166148
84.9197995962234
84.8625063351919
84.8046146359291
84.7293705944529
84.6406218164601
84.5659841965486
84.487530705611
84.3879773982465
84.3134381942471
84.2585660209974
84.1861759646472
84.0846566182134
83.9679641991445
83.8690118732387
83.807146086812
83.7394542140826
83.6407948155344
83.5523956692088
83.4594262784534
83.3576579267343
83.2645861500452
83.1757873283368
83.0851071535531
82.9930825429913
82.891254572057
82.7948361497985
82.6841498211767
82.5936709173536
82.5219709429865
82.4135799743459
82.2977841991641
82.1824662919869
82.054037216224
81.9217845862857
81.8249027821067
81.7375237153213
81.6398626360816
81.5457605761196
81.4180213618219
81.2635313884864
81.1501257574327
81.0456401508427
80.8986276668457
80.7545481003589
80.6513541947408
80.5244402349079
80.3738906204966
80.2440931539199
80.1414229416553
80.0216173049072
79.8860828226465
79.7560772929343
79.624158575037
79.4846744860557
79.3390716195396
79.1885771336766
79.0638029015485
78.9493006509535
78.8015743287038
78.6535539771304
78.5176044772357
78.3863023115215
78.2351266163055
78.0880049138148
77.9502900345862
77.8224691933611
77.6814295643276
77.4997747729676
77.3345090892852
77.1965659425644
77.0550034844591
76.9186494319194
76.7764040413403
76.6137549731406
76.4405030568332
76.2716754399019
76.1313845014045
75.9806133655046
75.7901617975312
75.6244868546503
75.4747814806099
75.3355532984279
75.190063510599
74.9977604329861
74.8095380319866
74.6768338632996
74.5281075782837
74.3242925593972
74.1423524306458
74.004269488076
73.8477761320255
73.6526125320232
73.4577004341557
73.2936925037236
73.1400581836389
73.0087285310585
72.853356170199
72.6649852904767
72.4942359901516
72.3113062850037
72.1121832569551
71.9639011806157
71.8213339407842
71.6363648737607
71.4360576739227
71.2788963060887
71.1139089416793
70.8948615693517
70.7463079550311
70.618975417646
70.4279423729153
70.2509051606878
70.0628000504337
69.8566585765681
69.6856690693917
69.5383352644355
69.3540606846904
69.1226274985309
68.9538699202782
68.8262685167094
68.673364917131
68.5185236924182
68.3145127075977
68.1221521977075
67.974541370267
67.7738403081137
67.5384189985343
67.3582137046386
67.1777850597285
66.9753951952013
66.8283797303334
66.6867688346393
66.4695692286909
66.2437618920347
66.1032609165601
65.9625328143956
65.7719050715995
65.5791022009558
65.3782391399001
65.1676671981628
64.9796524338771
64.8517936675156
64.7063342540226
64.5404657089253
64.3428217056057
64.1302692230984
63.9719192638997
63.8230145855573
63.6106684044816
63.4297657857535
63.2539269576382
63.0317736659412
62.8355292787234
62.7082662477245
62.5886982533278
62.3931395380388
62.1807097163051
61.9692439050497
61.7655604728427
61.6268729279471
61.4846422933846
61.3084111249274
61.1328535507895
60.962660215094
60.7295852593813
60.5271722019787
60.4327289955392
60.2861126793113
60.0658222190571
59.9026980691279
59.7826742459373
59.5880138667587
59.3661991839054
59.213709376364
59.0220499396884
58.7794277564939
58.60842670187
58.4544366975083
58.2308218573349
58.0796855324253
58.035227788867
57.9254664827567
57.7373564244706
57.4991277092312
57.2853876297632
57.1859431188037
57.0536717285585
56.7953988562546
56.5440661653866
56.4067045270879
56.26947209864
56.1084990618537
55.9572483339654
55.8336324286871
55.6342310272488
55.3775247492942
55.2038545224359
55.0513433325097
54.8420804924533
54.7043829108297
54.546431809524
54.3110645496946
54.1284047624963
54.0007425050972
53.9400812496232
53.8790161613992
53.6815937517784
53.4343328543234
53.2355942002534
53.0469110272903
52.8929555111172
52.7694930773088
52.6045394632504
52.5335565199653
52.4462251372627
52.2434518871968
51.9472790516397
51.6970275456187
51.5759658449982
51.4190649227409
51.2636765626827
51.2109814884029
51.1244509697116
50.9153710403952
50.7292147609848
50.5140070958994
50.2723836492794
50.1677215673334
50.0599096114149
49.8925054799503
49.7372422843237
49.564534025503
49.3908150237462
49.2565547515619
49.1063609027398
48.960247962061
48.7864932226666
48.6035102567025
48.4601305856823
48.3712083688317
48.2101618741181
48.0107967760464
47.8426746163089
47.6190903938569
47.4576376751658
47.465439933333
47.3366598760819
47.1671161760835
47.0230418453022
46.7980483234955
46.5930894658794
46.5664714733756
46.4557091596996
46.2136194618428
46.1340076666198
46.0459332539114
45.8085655885418
45.5609964925153
45.3438540801164
45.1989875410333
44.9691553474748
44.8008571492411
44.6043085145549
44.3562356765791
44.1763354940556
44.2563760365576
44.4225457555122
44.2360294238206
43.9121551343672
43.7177757922745
43.5570553149902
43.3126747073967
43.0182585258293
43.082627099397
43.0339652052708
42.7836690474658
42.5497830929666
42.4424136296001
42.2741962668655
42.2022228978404
41.9937461790452
41.6697441524575
41.6105350334178
41.5469739630566
41.4473481708218
41.2099300934977
41.007010461316
40.9678433825102
40.9200368637405
40.8229991185063
40.3271326001935
39.7199285396612
39.3717388728454
39.1797696096555
38.3952916895573
38.7782962600588
40.1136449781831
39.9174320123425
39.2609403945411
38.7777749397489
38.5185767403185
38.5956746699065
38.2564266896454
37.6319607639557
37.1692311958948
37.0159026620194
36.7629268621393
36.6575044158993
36.6249645865084
36.1259113681208
35.8216342937852
35.9441176044584
35.8832266816911
35.626294656391
35.1256455393468
